# SRM 2242 spectral sensitivity — LARA
# 532 nm  |  8 SRM acq × 5.0s  |  2 BG × 20.0s  |  norm @ 618.31 nm
# pixel  lambda_nm  raman_cm1  eta_b0  eta_b1  sigma_total_b0_pct  sigma_total_b1_pct
0.000000	528.734820	-116.080054	0.000000	0.000000	1.546553	2.770171
1.000000	528.801717	-113.687405	0.000000	0.000000	1.040127	2.387117
2.000000	528.868615	-111.295362	0.000000	0.000000	1.134786	3.326787
3.000000	528.935512	-108.903923	0.000000	0.000000	0.745158	1.671767
4.000000	529.002410	-106.513090	0.000000	0.000000	1.255345	2.214542
5.000000	529.069307	-104.122861	0.000000	0.000000	0.963262	2.055805
6.000000	529.136205	-101.733236	0.000000	0.000000	1.440265	3.011093
7.000000	529.203102	-99.344216	0.000000	0.000000	0.612452	1.641879
8.000000	529.270000	-96.955799	0.000000	0.000000	1.631202	2.773009
9.000000	529.336897	-94.567986	0.000000	0.000000	1.128814	2.256794
10.000000	529.403795	-92.180777	0.000000	0.000000	0.813125	1.970871
11.000000	529.470692	-89.794171	0.000000	0.000000	0.869785	2.884703
12.000000	529.537590	-87.408168	0.000000	0.000000	1.106098	2.992766
13.000000	529.604487	-85.022768	0.000000	0.000000	1.486306	1.490541
14.000000	529.671385	-82.637970	0.000000	0.000000	1.349982	1.962850
15.000000	529.738282	-80.253774	0.000000	0.000000	1.210529	3.044438
16.000000	529.805179	-77.870181	0.000000	0.000000	1.653333	1.733895
17.000000	529.872077	-75.487189	0.000000	0.000000	0.981665	1.966749
18.000000	529.938974	-73.104800	0.000000	0.000000	1.482814	2.101304
19.000000	530.005872	-70.723011	0.000000	0.000000	1.454001	3.068373
20.000000	530.072769	-68.341824	0.000000	0.000000	1.199676	3.046136
21.000000	530.139667	-65.961238	0.000000	0.000000	1.000597	2.342572
22.000000	530.206564	-63.581252	0.000000	0.000000	1.166872	2.670925
23.000000	530.273462	-61.201867	0.000000	0.000000	1.259472	2.319182
24.000000	530.340359	-58.823082	0.000000	0.000000	0.899683	2.414801
25.000000	530.407257	-56.444898	0.000000	0.000000	2.175694	2.194643
26.000000	530.474154	-54.067313	0.000000	0.000000	0.942307	2.285729
27.000000	530.541052	-51.690327	0.000000	0.000000	2.194436	2.233915
28.000000	530.607949	-49.313941	0.000000	0.000000	1.302568	4.068001
29.000000	530.674847	-46.938155	0.000000	0.000000	0.837089	2.841785
30.000000	530.741744	-44.562967	0.000000	0.000000	1.459437	2.185464
31.000000	530.808642	-42.188377	0.000000	0.000000	1.372397	2.321150
32.000000	530.875539	-39.814387	0.000000	0.000000	0.925659	3.281658
33.000000	530.942437	-37.440994	0.000000	0.000000	1.494809	3.697796
34.000000	531.009334	-35.068200	0.000000	0.000000	1.324597	2.860622
35.000000	531.076231	-32.696003	0.000000	0.000000	1.367145	2.907781
36.000000	531.143129	-30.324404	0.000000	0.000000	0.974257	2.700084
37.000000	531.210026	-27.953402	0.000000	0.000000	0.895393	1.876564
38.000000	531.276924	-25.582997	0.000000	0.000000	1.127230	2.597215
39.000000	531.343821	-23.213189	0.000000	0.000000	1.116257	3.288572
40.000000	531.410719	-20.843978	0.000000	0.000000	1.169263	2.003813
41.000000	531.477616	-18.475363	0.000000	0.000000	1.263805	2.646562
42.000000	531.544514	-16.107345	0.000000	0.000000	1.067153	2.743445
43.000000	531.611411	-13.739922	0.000000	0.000000	1.178135	2.758744
44.000000	531.678309	-11.373095	0.000000	0.000000	0.931689	1.912196
45.000000	531.745206	-9.006864	0.000000	0.000000	1.299041	1.950512
46.000000	531.812104	-6.641228	0.000000	0.000000	1.349916	2.219368
47.000000	531.879001	-4.276187	0.000000	0.000000	1.021898	2.276961
48.000000	531.945899	-1.911741	0.000000	0.000000	1.012965	1.538960
49.000000	532.012796	0.452111	0.000000	0.000000	1.350100	2.850413
50.000000	532.079694	2.815368	0.000000	0.000000	0.884417	2.236328
51.000000	532.146591	5.178030	0.000000	0.000000	1.300605	1.997948
52.000000	532.213489	7.540099	0.000000	0.000000	1.063829	2.399987
53.000000	532.280386	9.901574	0.000000	0.000000	0.848912	2.343951
54.000000	532.347283	12.262456	0.000000	0.000000	0.664340	1.980057
55.000000	532.414181	14.622744	0.000000	0.000000	1.245141	2.776066
56.000000	532.481078	16.982440	0.000000	0.000000	0.625430	1.816884
57.000000	532.547976	19.341542	0.000000	0.000000	1.538239	3.043663
58.000000	532.614873	21.700052	0.000000	0.000000	1.190465	1.854021
59.000000	532.681771	24.057970	0.000000	0.000000	0.874659	2.318769
60.000000	532.748668	26.415295	0.000000	0.000000	1.221747	2.039341
61.000000	532.815566	28.772028	0.000000	0.000000	1.291854	2.570228
62.000000	532.882463	31.128170	0.000000	0.000000	1.129839	1.893018
63.000000	532.949361	33.483720	0.000000	0.000000	1.437188	1.996852
64.000000	533.016258	35.838679	0.000000	0.000000	1.471936	2.450562
65.000000	533.083156	38.193047	0.000000	0.000000	1.426801	3.197985
66.000000	533.150053	40.546824	0.000000	0.000000	1.623555	2.704061
67.000000	533.216951	42.900010	0.000000	0.000000	1.046924	1.647767
68.000000	533.283848	45.252606	0.000000	0.000000	1.103380	2.602672
69.000000	533.350746	47.604612	0.000000	0.000000	0.716706	2.431058
70.000000	533.417643	49.956027	0.000000	0.000000	1.464817	1.557451
71.000000	533.484541	52.306854	0.000000	0.000000	0.943063	3.277226
72.000000	533.551438	54.657090	0.000000	0.000000	1.093322	2.311067
73.000000	533.618336	57.006738	0.000000	0.000000	0.747697	3.065705
74.000000	533.685233	59.355796	0.000000	0.000000	1.011772	1.809724
75.000000	533.752130	61.704265	0.000000	0.000000	0.974316	2.158407
76.000000	533.819028	64.052146	0.000000	0.000000	1.297962	1.577360
77.000000	533.885925	66.399439	0.000000	0.000000	1.034049	4.609591
78.000000	533.952823	68.746143	0.000000	0.000000	1.159123	3.262400
79.000000	534.019720	71.092259	0.000000	0.000000	1.878413	2.226855
80.000000	534.086618	73.437788	0.000000	0.000000	0.956419	2.595685
81.000000	534.153515	75.782729	0.000000	0.000000	1.563801	2.481279
82.000000	534.220413	78.127083	0.000000	0.000000	0.960281	1.960358
83.000000	534.287310	80.470849	0.000000	0.000000	1.583220	2.708443
84.000000	534.354208	82.814029	0.000000	0.000000	1.101136	2.507285
85.000000	534.421105	85.156623	0.000000	0.000000	1.200885	3.224995
86.000000	534.488003	87.498629	0.000000	0.000000	1.191449	2.926926
87.000000	534.554900	89.840050	0.000000	0.000000	1.783828	2.582776
88.000000	534.621798	92.180885	0.000000	0.000000	1.513201	1.550912
89.000000	534.688695	94.521134	0.000000	0.000000	1.440218	3.073668
90.000000	534.755593	96.860797	0.000000	0.000000	1.284156	3.222687
91.000000	534.822490	99.199875	0.000000	0.000000	1.548376	2.075473
92.000000	534.889388	101.538368	0.000000	0.000000	1.427755	2.713450
93.000000	534.956285	103.876276	0.000000	0.000000	1.014114	2.900947
94.000000	535.023182	106.213600	0.000000	0.000000	0.838564	2.851627
95.000000	535.090080	108.550339	0.000000	0.000000	1.174321	2.742304
96.000000	535.156977	110.886494	0.000000	0.000000	0.969532	3.593380
97.000000	535.223875	113.222065	0.000000	0.000000	0.861641	1.887265
98.000000	535.290772	115.557052	0.000000	0.000000	1.283960	1.657692
99.000000	535.357670	117.891455	0.000000	0.000000	1.230879	2.429165
100.000000	535.424567	120.225276	0.000000	0.000000	1.348937	2.017624
101.000000	535.491465	122.558513	0.000000	0.000000	0.840709	2.346599
102.000000	535.558362	124.891167	0.000000	0.000000	1.608279	2.733176
103.000000	535.625260	127.223239	0.000000	0.000000	1.462662	2.194723
104.000000	535.692157	129.554728	0.000000	0.000000	1.332829	1.928336
105.000000	535.759055	131.885634	0.000000	0.000000	1.399296	2.605392
106.000000	535.825952	134.215959	0.000000	0.000000	1.687054	1.938645
107.000000	535.892850	136.545702	0.000000	0.000000	1.269458	1.579606
108.000000	535.959747	138.874864	0.000000	0.000000	1.572607	1.441465
109.000000	536.026645	141.203444	0.000000	0.000000	1.695989	2.401632
110.000000	536.093542	143.531443	0.000000	0.000000	1.383639	2.019444
111.000000	536.160440	145.858861	0.000000	0.000000	1.668441	3.313282
112.000000	536.227337	148.185698	0.000000	0.000000	1.119651	2.519928
113.000000	536.294234	150.511955	0.280039	0.496255	2.001985	2.268589
114.000000	536.361132	152.837631	0.279044	0.493124	1.362806	2.121955
115.000000	536.428029	155.162727	0.278074	0.489626	1.112392	2.745444
116.000000	536.494927	157.487244	0.277151	0.485977	1.956326	2.709622
117.000000	536.561824	159.811181	0.276137	0.482353	1.287880	2.283020
118.000000	536.628722	162.134538	0.275294	0.478801	1.106151	2.533748
119.000000	536.695619	164.457317	0.274418	0.475100	1.424485	3.239258
120.000000	536.762517	166.779516	0.273594	0.471820	1.744696	3.143521
121.000000	536.829414	169.101137	0.272747	0.467987	0.942538	2.398082
122.000000	536.896312	171.422179	0.271979	0.465204	1.826946	2.433269
123.000000	536.963209	173.742642	0.271165	0.462161	1.728191	1.701293
124.000000	537.030107	176.062528	0.270527	0.459462	1.150000	3.507289
125.000000	537.097004	178.381835	0.269741	0.456419	0.904639	1.917056
126.000000	537.163902	180.700565	0.269197	0.453797	1.641579	2.274071
127.000000	537.230799	183.018718	0.268549	0.451073	1.911585	2.305076
128.000000	537.297697	185.336293	0.267898	0.448745	1.639015	2.439961
129.000000	537.364594	187.653291	0.267310	0.446947	1.355158	2.051638
130.000000	537.431492	189.969713	0.266723	0.445155	1.111253	3.008578
131.000000	537.498389	192.285557	0.266231	0.443778	1.802699	2.205487
132.000000	537.565287	194.600826	0.265704	0.442753	1.104870	1.990273
133.000000	537.632184	196.915518	0.265194	0.441778	1.323193	3.378936
134.000000	537.699081	199.229634	0.264714	0.441079	1.070137	3.040947
135.000000	537.765979	201.543175	0.264198	0.440599	1.105432	2.621918
136.000000	537.832876	203.856140	0.263684	0.440210	1.905923	2.768654
137.000000	537.899774	206.168529	0.263190	0.440447	1.034915	2.807216
138.000000	537.966671	208.480344	0.262809	0.440999	1.386730	3.398746
139.000000	538.033569	210.791584	0.262398	0.441894	1.172712	3.472628
140.000000	538.100466	213.102249	0.261998	0.442579	1.126174	2.737116
141.000000	538.167364	215.412339	0.261444	0.443046	2.064133	2.028814
142.000000	538.234261	217.721855	0.260926	0.443191	1.994374	2.223529
143.000000	538.301159	220.030798	0.260348	0.443471	1.141875	2.648764
144.000000	538.368056	222.339166	0.259704	0.443556	1.373638	1.898061
145.000000	538.434954	224.646961	0.259155	0.443441	1.172599	1.727559
146.000000	538.501851	226.954182	0.258620	0.443836	1.131700	5.105843
147.000000	538.568749	229.260830	0.258037	0.443961	1.395829	2.946871
148.000000	538.635646	231.566906	0.257458	0.443795	1.467290	2.336619
149.000000	538.702544	233.872408	0.256804	0.443869	1.733188	4.186387
150.000000	538.769441	236.177338	0.256192	0.443766	1.179807	2.346968
151.000000	538.836339	238.481696	0.255555	0.443719	1.127381	3.239713
152.000000	538.903236	240.785482	0.255015	0.443727	1.417712	1.634352
153.000000	538.970133	243.088695	0.254451	0.444149	1.622480	4.219874
154.000000	539.037031	245.391337	0.253965	0.444052	1.382038	1.880819
155.000000	539.103928	247.693408	0.253393	0.444029	1.442308	2.717085
156.000000	539.170826	249.994907	0.252932	0.444353	2.368429	3.228888
157.000000	539.237723	252.295835	0.252394	0.444402	1.653360	2.201159
158.000000	539.304621	254.596193	0.251981	0.444668	1.601741	2.850754
159.000000	539.371518	256.895979	0.251429	0.444631	1.313368	3.953326
160.000000	539.438416	259.195196	0.250981	0.444629	2.113865	2.600572
161.000000	539.505313	261.493842	0.250546	0.444638	1.569074	2.069220
162.000000	539.572211	263.791918	0.250069	0.444696	1.785707	2.260652
163.000000	539.639108	266.089425	0.249595	0.444831	1.155510	3.148024
164.000000	539.706006	268.386361	0.249043	0.444878	1.352068	2.543581
165.000000	539.772903	270.682729	0.248576	0.444784	1.202068	3.129713
166.000000	539.839801	272.978527	0.248099	0.444598	2.005609	2.470314
167.000000	539.906698	275.273757	0.247620	0.444665	1.491761	2.239557
168.000000	539.973596	277.568418	0.247146	0.444714	0.932241	2.387694
169.000000	540.040493	279.862510	0.246605	0.444575	1.710983	2.044378
170.000000	540.107391	282.156034	0.246079	0.444711	0.775034	2.827852
171.000000	540.174288	284.448990	0.245530	0.444799	1.266519	3.372637
172.000000	540.241185	286.741378	0.245127	0.445050	0.858698	2.614478
173.000000	540.308083	289.033198	0.244662	0.445101	1.565659	2.529939
174.000000	540.374980	291.324451	0.244263	0.445223	1.209108	3.024357
175.000000	540.441878	293.615136	0.243750	0.445151	2.017197	2.719532
176.000000	540.508775	295.905255	0.243268	0.445317	0.929244	2.785870
177.000000	540.575673	298.194807	0.242674	0.445680	1.407533	1.721609
178.000000	540.642570	300.483792	0.242134	0.445775	1.326432	3.059050
179.000000	540.709468	302.772211	0.241610	0.445911	0.948857	1.944074
180.000000	540.776365	305.060064	0.240990	0.445677	1.188661	2.944856
181.000000	540.843263	307.347350	0.240401	0.445904	1.483894	2.111053
182.000000	540.910160	309.634071	0.239731	0.446098	1.504732	2.755451
183.000000	540.977058	311.920226	0.239096	0.446027	1.641737	2.115015
184.000000	541.043955	314.205816	0.238484	0.446044	1.142594	3.168584
185.000000	541.110853	316.490841	0.237759	0.446471	1.597845	2.864674
186.000000	541.177750	318.775301	0.237152	0.446605	1.169016	2.956863
187.000000	541.244648	321.059196	0.236566	0.446496	1.478156	2.124501
188.000000	541.311545	323.342527	0.235899	0.446624	1.659736	2.090710
189.000000	541.378443	325.625294	0.235164	0.446806	1.651155	2.089200
190.000000	541.445340	327.907496	0.234504	0.446840	1.376178	4.177067
191.000000	541.512238	330.189134	0.233797	0.446689	1.438948	2.573308
192.000000	541.579135	332.470209	0.233140	0.446670	1.385533	2.845814
193.000000	541.646032	334.750720	0.232385	0.447133	1.552586	3.325582
194.000000	541.712930	337.030669	0.231703	0.446799	1.634310	3.153111
195.000000	541.779827	339.310054	0.231098	0.446831	2.175281	2.575023
196.000000	541.846725	341.588876	0.230403	0.447107	1.788463	2.343134
197.000000	541.913622	343.867135	0.229689	0.446939	1.355283	2.896505
198.000000	541.980520	346.144832	0.228921	0.447004	1.724313	1.974614
199.000000	542.047417	348.421967	0.228218	0.447103	1.737303	2.379171
200.000000	542.114315	350.698540	0.227594	0.447433	1.236899	2.267697
201.000000	542.181212	352.974551	0.226984	0.447515	0.920149	2.482411
202.000000	542.248110	355.250001	0.226478	0.447406	1.049180	1.530221
203.000000	542.315007	357.524889	0.225831	0.447665	1.571761	2.747685
204.000000	542.381905	359.799216	0.225312	0.447710	1.277708	2.482584
205.000000	542.448802	362.072982	0.224696	0.448112	1.657910	3.044899
206.000000	542.515700	364.346188	0.224122	0.448414	2.050431	1.779410
207.000000	542.582597	366.618832	0.223513	0.448778	1.734777	2.999992
208.000000	542.649495	368.890917	0.222850	0.449377	0.946760	3.381248
209.000000	542.716392	371.162441	0.222118	0.449461	1.339382	1.898067
210.000000	542.783290	373.433405	0.221397	0.449686	1.766180	2.367016
211.000000	542.850187	375.703810	0.220703	0.449900	1.634286	2.873853
212.000000	542.917084	377.973655	0.219995	0.450264	1.412051	2.861027
213.000000	542.983982	380.242941	0.219267	0.450500	1.467795	3.516247
214.000000	543.050879	382.511668	0.218483	0.450525	1.526942	2.195473
215.000000	543.117777	384.779835	0.217703	0.450627	1.183632	2.161824
216.000000	543.184674	387.047445	0.216912	0.450669	1.626231	2.135923
217.000000	543.251572	389.314495	0.216131	0.450639	1.098413	2.354726
218.000000	543.318469	391.580988	0.215305	0.451000	1.450551	2.553783
219.000000	543.385367	393.846922	0.214551	0.451367	1.659813	2.521419
220.000000	543.452264	396.112298	0.213742	0.451812	0.815563	2.268184
221.000000	543.519162	398.377117	0.213019	0.451903	1.223657	1.791402
222.000000	543.586059	400.641378	0.212249	0.452086	1.018669	2.426483
223.000000	543.652957	402.905083	0.211408	0.452765	1.426029	2.425314
224.000000	543.719854	405.168230	0.210590	0.453179	0.991324	2.009597
225.000000	543.786752	407.430820	0.209762	0.453543	1.337448	2.212316
226.000000	543.853649	409.692853	0.208809	0.453559	1.567276	3.643931
227.000000	543.920547	411.954331	0.207999	0.453744	2.328798	2.872626
228.000000	543.987444	414.215252	0.207098	0.453396	1.323815	2.664448
229.000000	544.054342	416.475617	0.206206	0.453626	1.805131	1.657877
230.000000	544.121239	418.735426	0.205295	0.453911	1.083028	3.039028
231.000000	544.188136	420.994679	0.204413	0.454454	1.379295	3.026789
232.000000	544.255034	423.253378	0.203508	0.454744	1.180846	3.091880
233.000000	544.321931	425.511520	0.202632	0.454963	1.072386	2.742102
234.000000	544.388829	427.769108	0.201707	0.455319	1.920430	2.426672
235.000000	544.455726	430.026142	0.200743	0.455785	1.484497	2.751214
236.000000	544.522624	432.282620	0.199895	0.455866	1.697154	3.022729
237.000000	544.589521	434.538545	0.198956	0.455721	1.434924	2.795268
238.000000	544.656419	436.793915	0.198061	0.456305	1.746224	2.574469
239.000000	544.723316	439.048731	0.197134	0.456720	2.016994	2.440400
240.000000	544.790214	441.302993	0.196309	0.457027	1.333362	2.499141
241.000000	544.857111	443.556702	0.195396	0.457067	1.805062	2.716117
242.000000	544.924009	445.809857	0.194491	0.457566	1.480672	2.069492
243.000000	544.990906	448.062460	0.193536	0.457807	1.529640	2.562908
244.000000	545.057804	450.314509	0.192665	0.457774	1.223102	2.330704
245.000000	545.124701	452.566006	0.191705	0.458396	1.810453	2.181120
246.000000	545.191599	454.816950	0.190790	0.458627	1.374143	1.656657
247.000000	545.258496	457.067342	0.189766	0.458785	1.206362	2.411500
248.000000	545.325394	459.317181	0.188805	0.458858	2.373799	2.254653
249.000000	545.392291	461.566469	0.187786	0.458910	2.044496	2.382003
250.000000	545.459189	463.815205	0.186693	0.458991	1.481468	1.983132
251.000000	545.526086	466.063389	0.185575	0.459077	2.499920	3.474955
252.000000	545.592983	468.311022	0.184450	0.459310	1.280158	1.584399
253.000000	545.659881	470.558104	0.183161	0.459752	2.198215	2.564139
254.000000	545.726778	472.804635	0.181912	0.459924	1.194560	2.270074
255.000000	545.793676	475.050616	0.180428	0.460132	1.580362	2.303514
256.000000	545.860573	477.296046	0.179084	0.460196	1.285898	3.508297
257.000000	545.927471	479.540925	0.177593	0.460465	1.581778	3.030818
258.000000	545.994368	481.785255	0.176063	0.460283	1.696792	2.819707
259.000000	546.061266	484.029034	0.174650	0.459813	1.793894	2.508806
260.000000	546.128163	486.272264	0.173287	0.459703	1.519653	1.878351
261.000000	546.195061	488.514945	0.172064	0.459646	1.698231	1.777327
262.000000	546.261958	490.757076	0.170921	0.459687	2.210823	1.893521
263.000000	546.328856	492.998658	0.169966	0.459795	1.328610	2.918936
264.000000	546.395753	495.239691	0.169126	0.460166	1.379686	2.679898
265.000000	546.462651	497.480175	0.168573	0.460349	1.716459	2.049522
266.000000	546.529548	499.720111	0.168283	0.460853	1.712632	3.028772
267.000000	546.596446	501.959499	0.168279	0.461403	1.316063	1.967677
268.000000	546.663343	504.198338	0.168513	0.462185	1.789807	2.712936
269.000000	546.730241	506.436630	0.169013	0.462790	1.886528	3.098591
270.000000	546.797138	508.674374	0.169842	0.463421	1.783327	2.497468
271.000000	546.864035	510.911570	0.171062	0.464587	1.595158	2.480678
272.000000	546.930933	513.148219	0.172568	0.466039	1.139664	3.292288
273.000000	546.997830	515.384322	0.174518	0.467420	1.319500	2.016725
274.000000	547.064728	517.619877	0.176773	0.468890	1.317021	1.570857
275.000000	547.131625	519.854885	0.179372	0.470377	2.445767	2.214705
276.000000	547.198523	522.089347	0.182330	0.471974	1.276765	3.338215
277.000000	547.265420	524.323263	0.185684	0.473701	1.380285	2.059702
278.000000	547.332318	526.556633	0.189478	0.475658	1.073106	1.641511
279.000000	547.399215	528.789457	0.193698	0.478169	1.352240	2.370333
280.000000	547.466113	531.021735	0.198198	0.480887	0.980760	3.299487
281.000000	547.533010	533.253468	0.203089	0.483500	2.120471	2.491919
282.000000	547.599908	535.484655	0.208413	0.486557	1.504527	2.364560
283.000000	547.666805	537.715297	0.214080	0.489559	1.298569	2.468984
284.000000	547.733703	539.945395	0.220099	0.492829	1.592306	2.417417
285.000000	547.800600	542.174948	0.226603	0.496107	1.089343	2.187114
286.000000	547.867498	544.403956	0.233364	0.499583	1.233501	2.942436
287.000000	547.934395	546.632420	0.240428	0.503038	1.566504	2.673650
288.000000	548.001293	548.860340	0.247736	0.507257	1.393614	2.646077
289.000000	548.068190	551.087716	0.255328	0.511262	1.986782	2.832824
290.000000	548.135087	553.314548	0.263226	0.515344	1.023196	2.491010
291.000000	548.201985	555.540837	0.271246	0.519619	1.178527	3.387141
292.000000	548.268882	557.766583	0.279529	0.524021	1.383606	1.809945
293.000000	548.335780	559.991785	0.287920	0.528247	1.240159	2.166913
294.000000	548.402677	562.216445	0.296396	0.532346	0.840266	1.577464
295.000000	548.469575	564.440562	0.304909	0.536471	1.157025	2.093875
296.000000	548.536472	566.664136	0.313593	0.540785	1.155070	2.770229
297.000000	548.603370	568.887168	0.322314	0.545368	0.992782	2.943491
298.000000	548.670267	571.109658	0.331065	0.550061	0.854172	1.767468
299.000000	548.737165	573.331607	0.339763	0.554737	1.275142	2.448662
300.000000	548.804062	575.553013	0.348512	0.559545	1.282968	3.402088
301.000000	548.870960	577.773878	0.357108	0.564285	0.981420	2.135701
302.000000	548.937857	579.994202	0.365887	0.568607	1.222522	2.125401
303.000000	549.004755	582.213984	0.374434	0.573116	1.122697	1.553928
304.000000	549.071652	584.433226	0.383125	0.577475	1.555110	3.378651
305.000000	549.138550	586.651927	0.391742	0.582084	1.026746	2.129481
306.000000	549.205447	588.870087	0.400299	0.586458	0.738773	2.752706
307.000000	549.272345	591.087707	0.408725	0.590849	1.008227	2.907581
308.000000	549.339242	593.304787	0.417233	0.595211	1.082154	2.865193
309.000000	549.406140	595.521327	0.425874	0.599790	0.963040	2.829658
310.000000	549.473037	597.737328	0.434527	0.604441	0.851582	2.324265
311.000000	549.539934	599.952789	0.443111	0.609087	1.273712	2.308347
312.000000	549.606832	602.167710	0.451680	0.613982	0.851566	2.863021
313.000000	549.673729	604.382093	0.460264	0.618907	1.045924	1.577995
314.000000	549.740627	606.595936	0.468842	0.623571	1.072445	1.667230
315.000000	549.807524	608.809241	0.477513	0.627730	0.949271	1.963063
316.000000	549.874422	611.022007	0.486234	0.632585	1.393706	2.207772
317.000000	549.941319	613.234235	0.494926	0.637109	1.030075	3.277117
318.000000	550.008217	615.445924	0.503647	0.641745	0.693173	2.583750
319.000000	550.075114	617.657076	0.512500	0.645939	1.491914	2.093240
320.000000	550.142012	619.867690	0.521315	0.650632	1.162292	2.131985
321.000000	550.208909	622.077767	0.530155	0.655457	0.574791	2.131015
322.000000	550.275807	624.287306	0.539069	0.659834	1.095915	2.400626
323.000000	550.342704	626.496308	0.548072	0.664404	0.659159	2.347822
324.000000	550.409602	628.704773	0.556913	0.669014	0.950762	2.126666
325.000000	550.476499	630.912701	0.565916	0.673531	0.536974	2.610424
326.000000	550.543397	633.120092	0.574985	0.678014	0.635118	1.795407
327.000000	550.610294	635.326947	0.584086	0.682404	0.750835	2.249919
328.000000	550.677192	637.533267	0.593270	0.687100	0.919210	2.100896
329.000000	550.744089	639.739050	0.602444	0.691620	0.978468	2.347184
330.000000	550.810986	641.944297	0.611593	0.696515	0.538678	2.398154
331.000000	550.877884	644.149008	0.620817	0.701382	0.869449	3.353585
332.000000	550.944781	646.353185	0.630240	0.705911	0.714242	1.859116
333.000000	551.011679	648.556826	0.639317	0.710415	1.088703	2.564029
334.000000	551.078576	650.759932	0.648582	0.715315	1.074408	2.739976
335.000000	551.145474	652.962503	0.657810	0.719973	0.627506	1.536270
336.000000	551.212371	655.164539	0.666961	0.724405	0.646354	1.817664
337.000000	551.279269	657.366041	0.676073	0.728924	0.875881	2.641512
338.000000	551.346166	659.567009	0.685251	0.733530	0.575410	1.705395
339.000000	551.413064	661.767443	0.694610	0.738082	0.564630	1.481058
340.000000	551.479961	663.967343	0.703818	0.742376	0.724849	2.557423
341.000000	551.546859	666.166709	0.712965	0.746929	0.517106	2.546569
342.000000	551.613756	668.365542	0.722267	0.750754	1.141706	2.578820
343.000000	551.680654	670.563842	0.731315	0.755257	0.583556	1.709978
344.000000	551.747551	672.761608	0.740488	0.759391	0.932581	2.148249
345.000000	551.814449	674.958842	0.749773	0.763615	0.904562	2.191973
346.000000	551.881346	677.155543	0.758989	0.768067	0.721372	2.181108
347.000000	551.948244	679.351712	0.768269	0.772210	1.093709	1.851837
348.000000	552.015141	681.547348	0.777535	0.776220	0.920395	1.620336
349.000000	552.082038	683.742452	0.786686	0.780103	1.002041	2.698841
350.000000	552.148936	685.937024	0.795933	0.784132	0.925465	1.953826
351.000000	552.215833	688.131064	0.805146	0.787853	0.874710	1.770205
352.000000	552.282731	690.324573	0.814640	0.792056	0.765320	2.566423
353.000000	552.349628	692.517551	0.823815	0.795903	0.833119	2.204250
354.000000	552.416526	694.709997	0.833127	0.799772	0.631192	1.788558
355.000000	552.483423	696.901913	0.842314	0.804201	0.784084	2.207634
356.000000	552.550321	699.093298	0.851516	0.807886	0.738537	1.783546
357.000000	552.617218	701.284152	0.861030	0.812196	0.581109	1.893316
358.000000	552.684116	703.474476	0.870500	0.816081	0.679068	2.665962
359.000000	552.751013	705.664269	0.879952	0.820112	0.651984	1.515847
360.000000	552.817911	707.853533	0.889224	0.824044	0.879027	2.000276
361.000000	552.884808	710.042267	0.898313	0.827827	0.523767	2.641927
362.000000	552.951706	712.230471	0.907658	0.831652	0.767642	1.611565
363.000000	553.018603	714.418146	0.916987	0.835392	0.468754	1.406595
364.000000	553.085501	716.605292	0.926371	0.838983	0.834080	1.998352
365.000000	553.152398	718.791908	0.935673	0.842486	0.754699	1.361358
366.000000	553.219296	720.977996	0.944949	0.846532	0.868307	1.983877
367.000000	553.286193	723.163555	0.954281	0.850138	0.874656	2.301621
368.000000	553.353091	725.348586	0.963647	0.853489	0.357460	1.635412
369.000000	553.419988	727.533089	0.972856	0.856738	0.513092	1.727629
370.000000	553.486885	729.717063	0.982096	0.861065	0.715974	1.731796
371.000000	553.553783	731.900509	0.991497	0.864595	0.923156	1.378148
372.000000	553.620680	734.083428	1.000915	0.868187	0.609554	2.279295
373.000000	553.687578	736.265820	1.010297	0.872124	0.815864	2.131874
374.000000	553.754475	738.447684	1.019638	0.875645	0.429455	2.193723
375.000000	553.821373	740.629021	1.029253	0.879344	0.465024	2.590219
376.000000	553.888270	742.809831	1.038495	0.882766	0.554817	1.610859
377.000000	553.955168	744.990114	1.047994	0.886365	0.533357	1.715723
378.000000	554.022065	747.169871	1.057392	0.889953	0.678359	2.694911
379.000000	554.088963	749.349101	1.066610	0.893403	0.597214	1.517897
380.000000	554.155860	751.527806	1.075963	0.897159	0.829110	2.389911
381.000000	554.222758	753.705984	1.085263	0.900512	0.668722	2.427727
382.000000	554.289655	755.883637	1.094533	0.903586	0.480015	1.576841
383.000000	554.356553	758.060764	1.103298	0.907233	0.553800	1.193126
384.000000	554.423450	760.237365	1.112387	0.910308	0.927152	1.196078
385.000000	554.490348	762.413442	1.121212	0.913166	0.548647	1.625635
386.000000	554.557245	764.588993	1.129969	0.915642	0.705013	2.091007
387.000000	554.624143	766.764020	1.138483	0.918282	0.455898	2.094752
388.000000	554.691040	768.938522	1.146931	0.921058	0.852869	2.260757
389.000000	554.757937	771.112499	1.154849	0.923947	0.687854	2.537223
390.000000	554.824835	773.285952	1.162538	0.925991	0.837270	2.283389
391.000000	554.891732	775.458882	1.169935	0.928206	0.819184	2.379585
392.000000	554.958630	777.631287	1.177157	0.929797	0.448292	2.038406
393.000000	555.025527	779.803169	1.184001	0.932004	0.604032	1.521816
394.000000	555.092425	781.974527	1.190753	0.933551	0.706110	1.579142
395.000000	555.159322	784.145362	1.197196	0.935065	0.557018	1.685531
396.000000	555.226220	786.315673	1.203174	0.936474	0.902863	2.042931
397.000000	555.293117	788.485462	1.208914	0.938299	0.842265	2.215051
398.000000	555.360015	790.654728	1.214432	0.939720	0.628617	1.495262
399.000000	555.426912	792.823472	1.219481	0.941150	0.435766	1.348611
400.000000	555.493810	794.991693	1.224305	0.942921	0.851887	2.207895
401.000000	555.560707	797.159392	1.228773	0.943713	0.554547	1.090307
402.000000	555.627605	799.326569	1.232855	0.945106	0.521826	1.808215
403.000000	555.694502	801.493224	1.236585	0.945958	0.772704	2.377402
404.000000	555.761400	803.659358	1.240285	0.947114	0.433584	1.564636
405.000000	555.828297	805.824970	1.243701	0.948569	0.574996	2.012820
406.000000	555.895195	807.990061	1.246826	0.949122	0.555514	2.122516
407.000000	555.962092	810.154631	1.249588	0.950295	0.542789	1.796874
408.000000	556.028989	812.318680	1.252063	0.950553	0.615437	1.667237
409.000000	556.095887	814.482209	1.254514	0.951232	0.453983	1.448804
410.000000	556.162784	816.645216	1.256523	0.951979	0.684629	1.685956
411.000000	556.229682	818.807704	1.258270	0.952477	0.445766	1.923251
412.000000	556.296579	820.969672	1.260075	0.953044	0.603035	2.014366
413.000000	556.363477	823.131119	1.261540	0.953383	0.594172	1.128051
414.000000	556.430374	825.292047	1.262891	0.953706	0.653762	1.682485
415.000000	556.497272	827.452456	1.264229	0.954360	0.466780	2.213105
416.000000	556.564169	829.612345	1.265537	0.954852	0.339506	1.594911
417.000000	556.631067	831.771715	1.266792	0.955100	0.420905	1.558814
418.000000	556.697964	833.930565	1.267894	0.955280	0.425397	1.584298
419.000000	556.764862	836.088898	1.268951	0.955751	0.595100	1.527522
420.000000	556.831759	838.246711	1.270313	0.956502	0.764108	1.886573
421.000000	556.898657	840.404006	1.271707	0.956585	0.455734	1.137222
422.000000	556.965554	842.560783	1.272782	0.957227	0.448960	1.233086
423.000000	557.032452	844.717042	1.274033	0.957694	0.612868	1.857201
424.000000	557.099349	846.872783	1.275339	0.958133	0.740132	1.847567
425.000000	557.166247	849.028006	1.276585	0.958891	0.740925	2.832975
426.000000	557.233144	851.182712	1.277751	0.959204	0.719155	1.557991
427.000000	557.300042	853.336900	1.279333	0.960072	0.530399	2.004790
428.000000	557.366939	855.490572	1.280601	0.960273	0.543515	2.120576
429.000000	557.433836	857.643726	1.282017	0.961038	0.693735	1.197616
430.000000	557.500734	859.796364	1.283698	0.961808	0.640318	2.619555
431.000000	557.567631	861.948485	1.285238	0.962544	0.322434	1.584027
432.000000	557.634529	864.100090	1.286625	0.963357	0.440129	2.359701
433.000000	557.701426	866.251179	1.288063	0.963950	0.423635	1.803880
434.000000	557.768324	868.401751	1.289706	0.964068	0.518039	1.462846
435.000000	557.835221	870.551808	1.291223	0.964549	0.425003	1.759466
436.000000	557.902119	872.701350	1.292855	0.965481	0.483332	1.593264
437.000000	557.969016	874.850375	1.294033	0.965976	0.496289	1.943381
438.000000	558.035914	876.998886	1.295179	0.966823	0.424668	2.353180
439.000000	558.102811	879.146881	1.296362	0.967381	0.446073	1.374503
440.000000	558.169709	881.294362	1.297846	0.967477	0.679870	2.507930
441.000000	558.236606	883.441328	1.299074	0.968116	0.681302	1.972141
442.000000	558.303504	885.587779	1.300397	0.968532	0.624345	2.063676
443.000000	558.370401	887.733716	1.301560	0.969383	0.895709	1.977050
444.000000	558.437299	889.879139	1.302659	0.970050	0.611292	1.785730
445.000000	558.504196	892.024048	1.303678	0.971085	0.588360	1.768930
446.000000	558.571094	894.168443	1.304661	0.972023	0.336933	1.982687
447.000000	558.637991	896.312325	1.305791	0.973254	0.381635	1.583121
448.000000	558.704888	898.455693	1.306895	0.973754	0.592264	2.045073
449.000000	558.771786	900.598548	1.307851	0.974558	0.638882	1.203405
450.000000	558.838683	902.740890	1.308809	0.975624	0.465504	1.276802
451.000000	558.905581	904.882719	1.309859	0.976085	0.585867	1.771035
452.000000	558.972478	907.024036	1.310839	0.977471	0.572905	2.028887
453.000000	559.039376	909.164840	1.312037	0.978490	0.421339	2.543142
454.000000	559.106273	911.305131	1.313206	0.979185	0.578751	1.920365
455.000000	559.173171	913.444911	1.314281	0.980070	0.818389	1.360759
456.000000	559.240068	915.584179	1.315443	0.980951	0.581503	2.123491
457.000000	559.306966	917.722934	1.316493	0.982094	0.761301	1.791951
458.000000	559.373863	919.861179	1.317813	0.982503	0.493435	1.521250
459.000000	559.440761	921.998912	1.318837	0.983594	0.412734	2.033853
460.000000	559.507658	924.136133	1.319612	0.984408	0.566905	1.941717
461.000000	559.574556	926.272844	1.320642	0.984692	0.627760	1.690647
462.000000	559.641453	928.409044	1.321826	0.985162	0.783368	1.508384
463.000000	559.708351	930.544733	1.322981	0.985801	0.567551	1.392001
464.000000	559.775248	932.679912	1.324218	0.986924	0.692413	1.992329
465.000000	559.842146	934.814581	1.325435	0.987804	0.644797	2.189361
466.000000	559.909043	936.948739	1.326310	0.988353	0.498025	1.336445
467.000000	559.975940	939.082387	1.327172	0.989246	0.417267	1.819299
468.000000	560.042838	941.215526	1.328088	0.989881	0.712842	2.136449
469.000000	560.109735	943.348155	1.329100	0.990628	0.381824	1.199364
470.000000	560.176633	945.480275	1.330245	0.991804	0.845082	2.272808
471.000000	560.243530	947.611886	1.331184	0.993025	0.681649	1.367572
472.000000	560.310428	949.742988	1.331799	0.994413	0.838791	2.508745
473.000000	560.377325	951.873580	1.332713	0.994979	0.388407	2.277954
474.000000	560.444223	954.003665	1.333543	0.995829	0.534749	1.225526
475.000000	560.511120	956.133240	1.334312	0.996852	0.431892	1.765102
476.000000	560.578018	958.262308	1.335044	0.998017	0.352888	1.443323
477.000000	560.644915	960.390867	1.335931	0.999129	0.375026	2.156275
478.000000	560.711813	962.518919	1.336737	0.999808	0.440027	2.290437
479.000000	560.778710	964.646463	1.337710	1.001089	0.473949	1.641333
480.000000	560.845608	966.773499	1.338568	1.001975	0.470336	2.932370
481.000000	560.912505	968.900028	1.339447	1.002101	0.644501	2.046848
482.000000	560.979403	971.026049	1.340252	1.002561	0.576800	1.631884
483.000000	561.046300	973.151564	1.341034	1.002942	0.645437	2.777205
484.000000	561.113198	975.276572	1.341791	1.003351	0.745686	1.984564
485.000000	561.180095	977.401073	1.342538	1.004065	0.574853	1.501814
486.000000	561.246993	979.525068	1.343079	1.004515	0.349011	1.636470
487.000000	561.313890	981.648556	1.343278	1.004595	0.365621	1.644484
488.000000	561.380787	983.771539	1.343747	1.005557	0.529689	1.347466
489.000000	561.447685	985.894015	1.344183	1.005924	0.697972	1.228200
490.000000	561.514582	988.015986	1.344496	1.005951	0.508415	1.865691
491.000000	561.581480	990.137451	1.344589	1.006429	0.628884	2.327096
492.000000	561.648377	992.258411	1.344936	1.007223	0.453131	1.409693
493.000000	561.715275	994.378865	1.345060	1.008049	0.478507	2.169685
494.000000	561.782172	996.498815	1.345113	1.008614	0.431038	1.496701
495.000000	561.849070	998.618260	1.345387	1.009555	0.605994	1.442458
496.000000	561.915967	1000.737200	1.345605	1.009988	0.739214	1.329493
497.000000	561.982865	1002.855635	1.345938	1.010410	0.572662	1.554946
498.000000	562.049762	1004.973567	1.346129	1.010818	0.513616	1.609211
499.000000	562.116660	1007.090994	1.346489	1.011709	0.481882	1.827965
500.000000	562.183557	1009.207917	1.346736	1.012130	0.873539	2.734620
501.000000	562.250455	1011.324337	1.347041	1.012579	0.675167	1.995611
502.000000	562.317352	1013.440253	1.347434	1.013064	0.476149	2.151220
503.000000	562.384250	1015.555666	1.347946	1.013750	0.480306	1.633665
504.000000	562.451147	1017.670575	1.348399	1.014348	0.484647	2.503764
505.000000	562.518045	1019.784981	1.348947	1.015422	0.451135	1.626747
506.000000	562.584942	1021.898885	1.349286	1.016024	0.646891	2.030113
507.000000	562.651839	1024.012286	1.349601	1.016304	0.655744	1.464277
508.000000	562.718737	1026.125184	1.350209	1.016696	0.697147	1.797714
509.000000	562.785634	1028.237580	1.350734	1.017583	0.441618	2.226943
510.000000	562.852532	1030.349474	1.351227	1.018127	0.387140	1.561107
511.000000	562.919429	1032.460866	1.351748	1.018858	0.528377	1.140269
512.000000	562.986327	1034.571756	1.352500	1.020084	0.725251	1.987624
513.000000	563.053224	1036.682145	1.352998	1.021172	0.647625	1.640001
514.000000	563.120122	1038.792032	1.353463	1.022141	0.516360	1.657039
515.000000	563.187019	1040.901418	1.353864	1.023195	0.448155	1.552396
516.000000	563.253917	1043.010303	1.354271	1.024214	0.458326	1.979034
517.000000	563.320814	1045.118687	1.354866	1.025478	0.525422	2.597139
518.000000	563.387712	1047.226570	1.355753	1.026395	0.709828	1.991798
519.000000	563.454609	1049.333952	1.356549	1.027419	0.605517	1.702348
520.000000	563.521507	1051.440835	1.357190	1.028948	0.605675	1.361529
521.000000	563.588404	1053.547217	1.357852	1.030283	0.515780	1.836743
522.000000	563.655302	1055.653099	1.358370	1.031476	0.564087	2.433432
523.000000	563.722199	1057.758482	1.359171	1.032329	0.918219	1.414986
524.000000	563.789097	1059.863364	1.359860	1.033472	0.560219	1.356230
525.000000	563.855994	1061.967748	1.360494	1.034667	0.616351	1.931482
526.000000	563.922891	1064.071632	1.361188	1.035423	0.572981	2.494110
527.000000	563.989789	1066.175017	1.362050	1.035714	0.491550	2.111963
528.000000	564.056686	1068.277903	1.362766	1.036552	0.799345	1.885592
529.000000	564.123584	1070.380290	1.363383	1.037251	0.612999	1.310750
530.000000	564.190481	1072.482179	1.364028	1.037803	0.464959	1.875672
531.000000	564.257379	1074.583569	1.364699	1.038252	0.541552	1.753369
532.000000	564.324276	1076.684461	1.365323	1.039527	0.714233	1.664414
533.000000	564.391174	1078.784855	1.365663	1.040337	0.380684	1.934963
534.000000	564.458071	1080.884751	1.366022	1.041124	0.434883	1.500749
535.000000	564.524969	1082.984150	1.366242	1.042203	0.664808	1.329062
536.000000	564.591866	1085.083051	1.366445	1.043147	0.551369	2.042873
537.000000	564.658764	1087.181454	1.366749	1.044332	0.584222	1.857157
538.000000	564.725661	1089.279361	1.367007	1.045428	0.588642	1.373996
539.000000	564.792559	1091.376770	1.367189	1.045936	0.665776	2.487158
540.000000	564.859456	1093.473683	1.367356	1.047189	0.348210	1.319032
541.000000	564.926354	1095.570099	1.367645	1.048307	0.493563	1.504450
542.000000	564.993251	1097.666019	1.367844	1.049623	0.776468	1.520046
543.000000	565.060149	1099.761442	1.367812	1.050308	0.486713	2.367989
544.000000	565.127046	1101.856370	1.367973	1.051199	0.819354	1.131261
545.000000	565.193944	1103.950801	1.368198	1.052219	0.603487	2.026903
546.000000	565.260841	1106.044736	1.368356	1.052808	0.679924	1.621464
547.000000	565.327738	1108.138177	1.368748	1.054115	0.601051	1.598753
548.000000	565.394636	1110.231121	1.368845	1.055489	0.521670	2.376999
549.000000	565.461533	1112.323571	1.368900	1.056664	0.865126	1.142727
550.000000	565.528431	1114.415525	1.368856	1.057096	0.444592	1.743828
551.000000	565.595328	1116.506985	1.368919	1.058568	0.569634	1.319378
552.000000	565.662226	1118.597949	1.369151	1.059601	0.436129	1.934333
553.000000	565.729123	1120.688420	1.369348	1.060841	0.483180	2.290104
554.000000	565.796021	1122.778396	1.369624	1.061773	0.405749	2.227118
555.000000	565.862918	1124.867878	1.369760	1.062675	0.454370	1.661112
556.000000	565.929816	1126.956865	1.369927	1.063743	0.693994	1.610338
557.000000	565.996713	1129.045359	1.370143	1.065058	0.520734	1.461696
558.000000	566.063611	1131.133360	1.370343	1.066572	0.583181	1.948901
559.000000	566.130508	1133.220867	1.370358	1.067720	0.421778	1.925176
560.000000	566.197406	1135.307880	1.370179	1.068843	0.518982	2.009191
561.000000	566.264303	1137.394401	1.370371	1.069941	0.642234	1.657628
562.000000	566.331201	1139.480429	1.370839	1.071403	0.391593	2.365620
563.000000	566.398098	1141.565963	1.370724	1.072343	0.673760	2.165496
564.000000	566.464996	1143.651006	1.370944	1.073737	0.550428	2.065254
565.000000	566.531893	1145.735555	1.371127	1.074803	0.589120	1.638481
566.000000	566.598790	1147.819613	1.371448	1.075993	0.463904	1.736748
567.000000	566.665688	1149.903179	1.371816	1.077364	0.441167	2.025785
568.000000	566.732585	1151.986252	1.372025	1.078397	0.536808	1.393285
569.000000	566.799483	1154.068834	1.371918	1.079812	0.521000	1.732162
570.000000	566.866380	1156.150925	1.371993	1.081212	0.533457	1.586921
571.000000	566.933278	1158.232524	1.372202	1.082552	0.534340	2.312250
572.000000	567.000175	1160.313631	1.372330	1.083790	0.389301	1.637735
573.000000	567.067073	1162.394248	1.372572	1.084564	0.448009	1.582793
574.000000	567.133970	1164.474374	1.372705	1.085676	0.451901	1.226458
575.000000	567.200868	1166.554009	1.372930	1.087244	0.377403	2.006489
576.000000	567.267765	1168.633154	1.373122	1.088387	0.462610	1.810240
577.000000	567.334663	1170.711809	1.373293	1.090078	0.453340	1.875934
578.000000	567.401560	1172.789973	1.373518	1.091411	0.682970	1.763569
579.000000	567.468458	1174.867647	1.373614	1.092447	0.552991	1.591174
580.000000	567.535355	1176.944832	1.373967	1.094446	0.670538	1.176049
581.000000	567.602253	1179.021527	1.374280	1.095864	0.647885	1.983218
582.000000	567.669150	1181.097732	1.374427	1.097160	0.478789	2.319240
583.000000	567.736048	1183.173448	1.374441	1.098683	0.664989	1.787491
584.000000	567.802945	1185.248675	1.374853	1.099628	0.543377	1.578333
585.000000	567.869842	1187.323413	1.375205	1.100779	0.333243	1.526032
586.000000	567.936740	1189.397663	1.375572	1.102344	0.592441	1.320840
587.000000	568.003637	1191.471423	1.375796	1.104077	0.481836	1.988318
588.000000	568.070535	1193.544696	1.376153	1.105764	0.544905	1.894988
589.000000	568.137432	1195.617480	1.376487	1.107486	0.611011	1.336591
590.000000	568.204330	1197.689776	1.376755	1.108854	0.394359	1.262420
591.000000	568.271227	1199.761584	1.377184	1.110017	0.614898	1.991309
592.000000	568.338125	1201.832904	1.377353	1.111554	0.433247	1.767675
593.000000	568.405022	1203.903737	1.377652	1.113262	0.550213	1.301073
594.000000	568.471920	1205.974082	1.377974	1.114756	0.557499	1.294783
595.000000	568.538817	1208.043940	1.378199	1.116654	0.359767	1.683591
596.000000	568.605715	1210.113311	1.378614	1.118505	0.589410	1.880114
597.000000	568.672612	1212.182196	1.379073	1.120423	0.530912	2.466345
598.000000	568.739510	1214.250593	1.379287	1.121900	0.472409	1.768648
599.000000	568.806407	1216.318504	1.379600	1.123521	0.628399	1.368122
600.000000	568.873305	1218.385929	1.380127	1.125221	0.487912	1.706503
601.000000	568.940202	1220.452867	1.380598	1.127344	0.536940	1.940770
602.000000	569.007100	1222.519320	1.381252	1.128950	0.409226	1.102831
603.000000	569.073997	1224.585286	1.381844	1.130594	0.765200	1.153951
604.000000	569.140895	1226.650767	1.382240	1.132671	0.649772	1.245347
605.000000	569.207792	1228.715763	1.382732	1.134571	0.404554	2.240701
606.000000	569.274689	1230.780273	1.383239	1.136796	0.592278	1.857952
607.000000	569.341587	1232.844298	1.383594	1.138550	0.458805	1.129405
608.000000	569.408484	1234.907838	1.384148	1.140868	0.497013	1.169159
609.000000	569.475382	1236.970893	1.384659	1.142878	0.665832	1.689090
610.000000	569.542279	1239.033463	1.385126	1.145095	0.584152	1.221973
611.000000	569.609177	1241.095549	1.385879	1.146685	0.695238	1.339394
612.000000	569.676074	1243.157151	1.386381	1.148787	0.454449	1.798970
613.000000	569.742972	1245.218268	1.386803	1.150818	0.510644	2.118207
614.000000	569.809869	1247.278902	1.387641	1.153009	0.706544	1.425418
615.000000	569.876767	1249.339052	1.388352	1.155139	0.618911	1.338408
616.000000	569.943664	1251.398718	1.388881	1.158241	0.374104	2.202636
617.000000	570.010562	1253.457901	1.389249	1.160702	0.643322	1.791744
618.000000	570.077459	1255.516600	1.389720	1.163229	0.498651	1.606207
619.000000	570.144357	1257.574817	1.390354	1.165996	0.480948	1.858419
620.000000	570.211254	1259.632550	1.391121	1.168708	0.492982	1.663751
621.000000	570.278152	1261.689801	1.391752	1.171308	0.713261	1.623456
622.000000	570.345049	1263.746569	1.392287	1.174160	0.522352	1.143802
623.000000	570.411947	1265.802854	1.392802	1.176765	0.381995	1.456896
624.000000	570.478844	1267.858658	1.393263	1.179802	0.456514	1.167767
625.000000	570.545741	1269.913979	1.393842	1.182427	0.508433	1.702457
626.000000	570.612639	1271.968818	1.394273	1.184981	0.689965	1.805380
627.000000	570.679536	1274.023176	1.394618	1.187659	0.463264	2.260023
628.000000	570.746434	1276.077052	1.395076	1.190471	0.370187	1.587533
629.000000	570.813331	1278.130446	1.395508	1.193120	0.693048	1.527259
630.000000	570.880229	1280.183360	1.395825	1.196271	0.510761	2.135072
631.000000	570.947126	1282.235792	1.396351	1.198285	0.707197	1.996057
632.000000	571.014024	1284.287743	1.396688	1.200922	0.305067	0.785345
633.000000	571.080921	1286.339214	1.397097	1.203574	0.438238	1.979916
634.000000	571.147819	1288.390204	1.397523	1.206303	0.589004	1.132578
635.000000	571.214716	1290.440714	1.397886	1.209873	0.672019	1.337871
636.000000	571.281614	1292.490743	1.398360	1.212761	0.634821	1.539677
637.000000	571.348511	1294.540292	1.398725	1.215221	0.329917	1.480978
638.000000	571.415409	1296.589362	1.399313	1.218204	0.526820	2.381412
639.000000	571.482306	1298.637951	1.399592	1.220773	0.389279	1.759639
640.000000	571.549204	1300.686062	1.399915	1.223228	0.569436	1.276163
641.000000	571.616101	1302.733692	1.400285	1.226185	0.612727	1.348274
642.000000	571.682999	1304.780844	1.400696	1.229150	0.551404	1.922395
643.000000	571.749896	1306.827516	1.401061	1.232581	0.610545	2.019255
644.000000	571.816793	1308.873710	1.401527	1.235547	0.553628	1.437423
645.000000	571.883691	1310.919425	1.402008	1.238937	0.749206	1.344340
646.000000	571.950588	1312.964661	1.402629	1.241836	0.418879	1.417793
647.000000	572.017486	1315.009419	1.403115	1.244771	0.460376	1.819866
648.000000	572.084383	1317.053699	1.403348	1.247943	0.389287	2.108061
649.000000	572.151281	1319.097501	1.403568	1.251614	0.532520	1.333185
650.000000	572.218178	1321.140824	1.403812	1.254760	0.498464	1.272448
651.000000	572.285076	1323.183671	1.403916	1.258210	0.380716	1.251856
652.000000	572.351973	1325.226039	1.404158	1.261656	0.371550	1.133569
653.000000	572.418871	1327.267930	1.404227	1.265304	0.637441	1.652091
654.000000	572.485768	1329.309344	1.404468	1.268874	0.431660	0.985505
655.000000	572.552666	1331.350281	1.404961	1.272448	0.513282	1.504946
656.000000	572.619563	1333.390741	1.405154	1.276285	0.711231	1.823149
657.000000	572.686461	1335.430725	1.405481	1.279875	0.415666	0.955244
658.000000	572.753358	1337.470231	1.405719	1.283606	0.488875	1.377145
659.000000	572.820256	1339.509262	1.405838	1.286905	0.349542	1.642585
660.000000	572.887153	1341.547816	1.406021	1.290239	0.476855	1.485692
661.000000	572.954051	1343.585894	1.406451	1.293564	0.532430	1.418837
662.000000	573.020948	1345.623497	1.406865	1.297611	0.558245	1.852402
663.000000	573.087846	1347.660623	1.407329	1.301964	0.528271	1.132628
664.000000	573.154743	1349.697274	1.407710	1.305998	0.401881	1.004056
665.000000	573.221640	1351.733450	1.407835	1.310058	0.554928	2.251847
666.000000	573.288538	1353.769151	1.408019	1.313913	0.380902	1.252008
667.000000	573.355435	1355.804376	1.408330	1.318070	0.705011	1.113682
668.000000	573.422333	1357.839127	1.408699	1.322409	0.377053	1.689690
669.000000	573.489230	1359.873403	1.408831	1.326792	0.415151	1.361487
670.000000	573.556128	1361.907204	1.409006	1.330818	0.640078	1.916568
671.000000	573.623025	1363.940531	1.409165	1.334930	0.495110	1.448279
672.000000	573.689923	1365.973384	1.409334	1.339850	0.542370	1.637306
673.000000	573.756820	1368.005763	1.409620	1.344281	0.715683	1.931300
674.000000	573.823718	1370.037667	1.409752	1.348919	0.495157	0.833301
675.000000	573.890615	1372.069099	1.410047	1.353213	0.467932	0.793822
676.000000	573.957513	1374.100056	1.409938	1.357570	0.391627	1.497746
677.000000	574.024410	1376.130540	1.410064	1.362352	0.470873	1.003548
678.000000	574.091308	1378.160551	1.410344	1.367121	0.440611	1.206997
679.000000	574.158205	1380.190089	1.410557	1.371155	0.554558	1.748620
680.000000	574.225103	1382.219154	1.410666	1.375547	0.587730	1.194284
681.000000	574.292000	1384.247747	1.411019	1.380421	0.399416	2.204930
682.000000	574.358898	1386.275866	1.411004	1.385469	0.592745	1.486502
683.000000	574.425795	1388.303514	1.411021	1.390409	0.526663	1.316105
684.000000	574.492692	1390.330689	1.411047	1.395642	0.542836	1.008588
685.000000	574.559590	1392.357392	1.411373	1.400721	0.683070	1.782693
686.000000	574.626487	1394.383623	1.411480	1.405395	0.308709	1.399762
687.000000	574.693385	1396.409383	1.411699	1.410537	0.736327	1.556336
688.000000	574.760282	1398.434671	1.411985	1.416137	0.430127	2.098983
689.000000	574.827180	1400.459487	1.412256	1.421207	0.406841	1.087136
690.000000	574.894077	1402.483833	1.412503	1.426454	0.473121	1.543158
691.000000	574.960975	1404.507707	1.412733	1.431959	0.568495	1.171467
692.000000	575.027872	1406.531110	1.413004	1.437763	0.590015	1.234253
693.000000	575.094770	1408.554043	1.413119	1.443678	0.290256	1.685917
694.000000	575.161667	1410.576505	1.413282	1.448702	0.499986	1.375763
695.000000	575.228565	1412.598496	1.413384	1.454501	0.750563	1.459311
696.000000	575.295462	1414.620018	1.413554	1.460274	0.644164	1.299628
697.000000	575.362360	1416.641069	1.413412	1.466072	0.539764	2.319516
698.000000	575.429257	1418.661650	1.413382	1.472112	0.641793	1.496076
699.000000	575.496155	1420.681762	1.413193	1.478255	0.433871	1.599873
700.000000	575.563052	1422.701404	1.413275	1.483373	0.608976	1.638476
701.000000	575.629950	1424.720576	1.413276	1.489370	0.426781	0.915136
702.000000	575.696847	1426.739280	1.413249	1.495259	0.526929	1.379953
703.000000	575.763744	1428.757514	1.413401	1.500994	0.429396	1.506202
704.000000	575.830642	1430.775279	1.413645	1.506771	0.438117	1.769954
705.000000	575.897539	1432.792576	1.413716	1.513051	0.364225	1.367819
706.000000	575.964437	1434.809404	1.413691	1.518754	0.402493	0.928984
707.000000	576.031334	1436.825763	1.413718	1.524597	0.300539	1.346827
708.000000	576.098232	1438.841654	1.413869	1.530027	0.714309	1.614936
709.000000	576.165129	1440.857077	1.413915	1.535680	0.542915	1.534243
710.000000	576.232027	1442.872032	1.413962	1.541488	0.593220	1.484178
711.000000	576.298924	1444.886519	1.413938	1.547395	0.563902	0.969225
712.000000	576.365822	1446.900539	1.413940	1.552900	0.623041	1.015670
713.000000	576.432719	1448.914091	1.413875	1.558583	0.861560	0.947174
714.000000	576.499617	1450.927176	1.413776	1.563895	0.590452	1.472154
715.000000	576.566514	1452.939794	1.413724	1.569409	0.707105	1.627815
716.000000	576.633412	1454.951944	1.413514	1.575105	0.371251	1.242879
717.000000	576.700309	1456.963628	1.413335	1.580679	0.332604	1.175451
718.000000	576.767207	1458.974845	1.413097	1.585998	0.481142	0.936177
719.000000	576.834104	1460.985596	1.412870	1.591201	0.525738	1.164980
720.000000	576.901002	1462.995881	1.412754	1.595821	0.548429	1.521514
721.000000	576.967899	1465.005699	1.412550	1.600661	0.551476	1.465324
722.000000	577.034797	1467.015051	1.412368	1.605569	0.415889	1.492613
723.000000	577.101694	1469.023937	1.412180	1.610246	0.519931	1.550588
724.000000	577.168591	1471.032358	1.412005	1.615198	0.609688	1.310270
725.000000	577.235489	1473.040313	1.411909	1.619974	0.398064	1.550746
726.000000	577.302386	1475.047803	1.411562	1.624605	0.708958	1.140622
727.000000	577.369284	1477.054828	1.411401	1.629929	0.470011	1.396592
728.000000	577.436181	1479.061387	1.411179	1.634472	0.455850	1.150205
729.000000	577.503079	1481.067482	1.410926	1.639689	0.237997	1.236452
730.000000	577.569976	1483.073112	1.410617	1.644875	0.349467	1.205694
731.000000	577.636874	1485.078277	1.410208	1.650324	0.574305	0.979395
732.000000	577.703771	1487.082978	1.410109	1.655567	0.471324	0.856755
733.000000	577.770669	1489.087215	1.409996	1.660639	0.579962	1.001760
734.000000	577.837566	1491.090988	1.409986	1.665968	0.531458	1.137052
735.000000	577.904464	1493.094297	1.410017	1.670856	0.649639	1.058828
736.000000	577.971361	1495.097142	1.409966	1.675473	0.573642	0.859254
737.000000	578.038259	1497.099523	1.409979	1.680503	0.425153	1.605422
738.000000	578.105156	1499.101441	1.410035	1.685741	0.576020	0.949482
739.000000	578.172054	1501.102896	1.409951	1.690342	0.562061	0.954240
740.000000	578.238951	1503.103888	1.409773	1.695466	0.479291	1.333146
741.000000	578.305849	1505.104416	1.409574	1.700811	0.665232	0.759094
742.000000	578.372746	1507.104482	1.409436	1.705926	0.602428	1.132767
743.000000	578.439643	1509.104086	1.409342	1.710945	0.652843	1.231360
744.000000	578.506541	1511.103227	1.409190	1.716290	0.544916	1.438492
745.000000	578.573438	1513.101905	1.409069	1.721938	0.430943	1.243749
746.000000	578.640336	1515.100122	1.409056	1.727194	0.426499	1.149188
747.000000	578.707233	1517.097876	1.408871	1.732705	0.437216	0.873333
748.000000	578.774131	1519.095169	1.408827	1.737851	0.419805	1.564266
749.000000	578.841028	1521.092000	1.408743	1.743178	0.476548	1.235702
750.000000	578.907926	1523.088369	1.408826	1.748365	0.317780	1.178056
751.000000	578.974823	1525.084277	1.408717	1.754124	0.644996	1.088900
752.000000	579.041721	1527.079724	1.408509	1.759860	0.322914	1.060227
753.000000	579.108618	1529.074710	1.408503	1.765271	0.508760	1.492217
754.000000	579.175516	1531.069235	1.408430	1.771099	0.519820	1.821259
755.000000	579.242413	1533.063300	1.408413	1.776467	0.404316	1.382472
756.000000	579.309311	1535.056903	1.408233	1.782012	0.520492	1.108001
757.000000	579.376208	1537.050047	1.408164	1.787349	0.612589	1.042987
758.000000	579.443106	1539.042730	1.407885	1.792768	0.463464	1.622168
759.000000	579.510003	1541.034953	1.407497	1.798227	0.379384	1.101788
760.000000	579.576901	1543.026717	1.407295	1.803297	0.454664	0.982020
761.000000	579.643798	1545.018020	1.406993	1.808265	0.753193	1.067852
762.000000	579.710695	1547.008864	1.406839	1.812881	0.586745	0.766307
763.000000	579.777593	1548.999248	1.406563	1.818069	0.349424	1.346850
764.000000	579.844490	1550.989174	1.406228	1.822758	0.507868	1.216649
765.000000	579.911388	1552.978640	1.405945	1.827245	0.593159	1.329968
766.000000	579.978285	1554.967647	1.405532	1.831326	0.421462	1.013722
767.000000	580.045183	1556.956195	1.405309	1.835071	0.491756	1.107612
768.000000	580.112080	1558.944285	1.404897	1.839340	0.438225	1.121779
769.000000	580.178978	1560.931917	1.404517	1.843294	0.390699	0.911478
770.000000	580.245875	1562.919089	1.404259	1.847086	0.548511	1.451131
771.000000	580.312773	1564.905804	1.403969	1.851162	0.502713	0.985559
772.000000	580.379670	1566.892061	1.403649	1.855405	0.416334	1.470908
773.000000	580.446568	1568.877860	1.403484	1.859976	0.510924	1.374540
774.000000	580.513465	1570.863201	1.403371	1.863858	0.281401	0.864589
775.000000	580.580363	1572.848085	1.403068	1.867763	0.476240	1.152160
776.000000	580.647260	1574.832512	1.402751	1.871767	0.276651	1.259797
777.000000	580.714158	1576.816481	1.402413	1.876144	0.589602	1.263674
778.000000	580.781055	1578.799993	1.402207	1.880070	0.495169	1.362997
779.000000	580.847953	1580.783048	1.401960	1.883913	0.532470	1.292861
780.000000	580.914850	1582.765647	1.401751	1.887108	0.783233	1.105185
781.000000	580.981748	1584.747789	1.401545	1.891076	0.398211	1.547684
782.000000	581.048645	1586.729474	1.401396	1.895383	0.479725	0.776596
783.000000	581.115542	1588.710704	1.401135	1.898827	0.567545	1.254528
784.000000	581.182440	1590.691477	1.400761	1.902551	0.583494	0.761294
785.000000	581.249337	1592.671794	1.400470	1.905902	0.618364	1.315243
786.000000	581.316235	1594.651655	1.400334	1.909237	0.380177	0.930022
787.000000	581.383132	1596.631061	1.400056	1.912901	0.516187	0.650658
788.000000	581.450030	1598.610012	1.399791	1.916649	0.380749	1.610677
789.000000	581.516927	1600.588507	1.399340	1.920200	0.529069	0.964062
790.000000	581.583825	1602.566547	1.399006	1.924092	0.511778	1.211942
791.000000	581.650722	1604.544131	1.398571	1.927538	0.398818	1.725628
792.000000	581.717620	1606.521261	1.398412	1.931403	0.682024	1.122452
793.000000	581.784517	1608.497937	1.398274	1.935025	0.614164	1.078655
794.000000	581.851415	1610.474158	1.397951	1.938309	0.498799	0.934531
795.000000	581.918312	1612.449924	1.397664	1.941437	0.540367	1.377171
796.000000	581.985210	1614.425236	1.397504	1.945168	0.440487	1.471567
797.000000	582.052107	1616.400094	1.397090	1.948472	0.515649	1.056839
798.000000	582.119005	1618.374499	1.396751	1.951247	0.588649	0.862234
799.000000	582.185902	1620.348449	1.396434	1.955067	0.528145	0.679281
800.000000	582.252800	1622.321946	1.396073	1.958939	0.534708	1.096517
801.000000	582.319697	1624.294990	1.395699	1.962329	0.373114	1.376824
802.000000	582.386594	1626.267580	1.395378	1.965984	0.410559	0.782560
803.000000	582.453492	1628.239717	1.395077	1.969015	0.431905	0.819565
804.000000	582.520389	1630.211401	1.394808	1.972465	0.367366	1.199477
805.000000	582.587287	1632.182632	1.394468	1.975906	0.415143	0.587477
806.000000	582.654184	1634.153411	1.394075	1.979165	0.396141	1.046623
807.000000	582.721082	1636.123737	1.393763	1.982213	0.371817	0.859109
808.000000	582.787979	1638.093611	1.393420	1.985474	0.590650	1.173247
809.000000	582.854877	1640.063033	1.393291	1.987879	0.397454	0.906291
810.000000	582.921774	1642.032002	1.392969	1.990829	0.575094	0.891384
811.000000	582.988672	1644.000520	1.392506	1.993816	0.413611	1.361494
812.000000	583.055569	1645.968586	1.392265	1.996731	0.462337	1.245844
813.000000	583.122467	1647.936200	1.391978	1.999089	0.469220	1.609033
814.000000	583.189364	1649.903363	1.391557	2.001490	0.478439	1.499013
815.000000	583.256262	1651.870075	1.391290	2.004092	0.657327	1.375386
816.000000	583.323159	1653.836336	1.390976	2.006467	0.431080	1.188497
817.000000	583.390057	1655.802146	1.390560	2.008939	0.540353	1.215033
818.000000	583.456954	1657.767505	1.390106	2.011217	0.419098	1.222175
819.000000	583.523852	1659.732413	1.389795	2.013148	0.383990	0.827643
820.000000	583.590749	1661.696871	1.389499	2.015115	0.683321	0.892044
821.000000	583.657646	1663.660878	1.389147	2.017137	0.488837	1.219431
822.000000	583.724544	1665.624436	1.388892	2.019279	0.586428	0.815345
823.000000	583.791441	1667.587543	1.388774	2.021011	0.409135	1.100470
824.000000	583.858339	1669.550200	1.388375	2.022673	0.514706	1.499038
825.000000	583.925236	1671.512408	1.387963	2.024671	0.438549	1.072210
826.000000	583.992134	1673.474166	1.387622	2.026499	0.621831	1.379128
827.000000	584.059031	1675.435475	1.387147	2.028122	0.430707	0.979534
828.000000	584.125929	1677.396335	1.386947	2.030000	0.354881	0.901964
829.000000	584.192826	1679.356745	1.386515	2.031306	0.836000	1.315702
830.000000	584.259724	1681.316707	1.386305	2.033033	0.418529	1.356391
831.000000	584.326621	1683.276220	1.386027	2.035042	0.659129	1.306970
832.000000	584.393519	1685.235284	1.385636	2.035950	0.457271	0.919683
833.000000	584.460416	1687.193899	1.385284	2.037064	0.627084	1.222875
834.000000	584.527314	1689.152067	1.384857	2.038756	0.432477	0.951664
835.000000	584.594211	1691.109786	1.384662	2.039991	0.565941	0.641831
836.000000	584.661109	1693.067057	1.384339	2.041543	0.595466	1.048507
837.000000	584.728006	1695.023881	1.383959	2.042851	0.484819	0.735895
838.000000	584.794904	1696.980256	1.383630	2.044344	0.453145	1.110150
839.000000	584.861801	1698.936184	1.383279	2.045848	0.483511	1.203885
840.000000	584.928699	1700.891665	1.382856	2.046795	0.527796	1.071470
841.000000	584.995596	1702.846699	1.382394	2.047892	0.503289	1.207090
842.000000	585.062493	1704.801285	1.382177	2.048834	0.448364	1.361367
843.000000	585.129391	1706.755424	1.381771	2.049615	0.492332	1.154040
844.000000	585.196288	1708.709117	1.381284	2.050531	0.411021	0.752500
845.000000	585.263186	1710.662363	1.380920	2.052527	0.608593	1.312987
846.000000	585.330083	1712.615163	1.380561	2.053248	0.341090	1.012758
847.000000	585.396981	1714.567516	1.380032	2.054028	0.274816	1.059168
848.000000	585.463878	1716.519423	1.379789	2.054820	0.259149	1.106421
849.000000	585.530776	1718.470884	1.379466	2.055794	0.299877	1.697793
850.000000	585.597673	1720.421899	1.379163	2.056494	0.357700	1.568400
851.000000	585.664571	1722.372469	1.378834	2.057134	0.521998	1.278797
852.000000	585.731468	1724.322593	1.378399	2.057918	0.482917	1.135771
853.000000	585.798366	1726.272271	1.377928	2.058761	0.588358	0.694818
854.000000	585.865263	1728.221504	1.377564	2.059462	0.391833	0.684356
855.000000	585.932161	1730.170293	1.377078	2.060509	0.418425	1.073145
856.000000	585.999058	1732.118636	1.376787	2.060905	0.654714	1.356656
857.000000	586.065956	1734.066534	1.376402	2.062253	0.440349	0.996614
858.000000	586.132853	1736.013988	1.376097	2.063138	0.404036	0.639733
859.000000	586.199751	1737.960997	1.375618	2.063697	0.543651	1.009255
860.000000	586.266648	1739.907562	1.375224	2.064394	0.408034	1.106023
861.000000	586.333545	1741.853683	1.374898	2.064869	0.387004	1.367836
862.000000	586.400443	1743.799360	1.374650	2.065161	0.470346	1.152827
863.000000	586.467340	1745.744593	1.374371	2.065140	0.452603	1.338549
864.000000	586.534238	1747.689382	1.374173	2.065480	0.546917	1.476298
865.000000	586.601135	1749.633728	1.373895	2.065588	0.291684	0.700044
866.000000	586.668033	1751.577630	1.373414	2.065897	0.468980	0.977802
867.000000	586.734930	1753.521089	1.373013	2.065504	0.366793	1.016875
868.000000	586.801828	1755.464104	1.372697	2.065263	0.519816	1.062437
869.000000	586.868725	1757.406677	1.372419	2.065583	0.497879	0.858085
870.000000	586.935623	1759.348807	1.372066	2.065396	0.638436	0.738743
871.000000	587.002520	1761.290494	1.371804	2.064864	0.504610	1.009878
872.000000	587.069418	1763.231739	1.371507	2.064668	0.509642	1.177165
873.000000	587.136315	1765.172542	1.371225	2.064190	0.451323	1.327396
874.000000	587.203213	1767.112902	1.370910	2.064561	0.403195	0.646431
875.000000	587.270110	1769.052820	1.370601	2.063949	0.322799	1.139481
876.000000	587.337008	1770.992296	1.370342	2.063705	0.576424	0.928060
877.000000	587.403905	1772.931331	1.370088	2.063065	0.617423	1.021655
878.000000	587.470803	1774.869923	1.369874	2.062888	0.490665	0.874822
879.000000	587.537700	1776.808075	1.369641	2.061667	0.359361	0.858477
880.000000	587.604597	1778.745785	1.369636	2.061381	0.567555	1.291013
881.000000	587.671495	1780.683054	1.369336	2.060498	0.473811	0.841474
882.000000	587.738392	1782.619882	1.368917	2.059652	0.716262	1.321910
883.000000	587.805290	1784.556269	1.368742	2.059500	0.423853	0.915892
884.000000	587.872187	1786.492215	1.368608	2.059142	0.431824	0.929256
885.000000	587.939085	1788.427721	1.368399	2.058401	0.523103	1.534154
886.000000	588.005982	1790.362786	1.368099	2.058060	0.401464	0.888334
887.000000	588.072880	1792.297412	1.367788	2.057373	0.520011	0.815165
888.000000	588.139777	1794.231597	1.367456	2.057068	0.634485	0.867010
889.000000	588.206675	1796.165342	1.367177	2.056079	0.451196	0.676529
890.000000	588.273572	1798.098647	1.366843	2.054814	0.312042	2.243000
891.000000	588.340470	1800.031513	1.366583	2.054440	0.479399	0.995076
892.000000	588.407367	1801.963939	1.366289	2.054192	0.249027	1.344254
893.000000	588.474265	1803.895925	1.366037	2.053394	0.532942	1.113122
894.000000	588.541162	1805.827473	1.365612	2.052658	0.496215	0.938143
895.000000	588.608060	1807.758582	1.365148	2.051506	0.268455	1.208961
896.000000	588.674957	1809.689251	1.364744	2.049953	0.389635	0.866612
897.000000	588.741855	1811.619482	1.364295	2.049182	0.457495	1.118712
898.000000	588.808752	1813.549274	1.363892	2.047722	0.363528	0.745831
899.000000	588.875650	1815.478628	1.363399	2.046581	0.352011	1.299514
900.000000	588.942547	1817.407543	1.362951	2.045696	0.622083	0.732239
901.000000	589.009444	1819.336021	1.362555	2.044897	0.430268	1.064482
902.000000	589.076342	1821.264060	1.361950	2.043351	0.449521	0.858309
903.000000	589.143239	1823.191662	1.361526	2.042783	0.502211	0.932712
904.000000	589.210137	1825.118825	1.360989	2.041463	0.344704	0.848424
905.000000	589.277034	1827.045551	1.360597	2.040734	0.546849	0.930396
906.000000	589.343932	1828.971840	1.360268	2.039184	0.499497	1.228965
907.000000	589.410829	1830.897692	1.359842	2.037962	0.417922	1.087273
908.000000	589.477727	1832.823106	1.359310	2.036185	0.471389	0.753113
909.000000	589.544624	1834.748083	1.358881	2.034511	0.513103	1.372083
910.000000	589.611522	1836.672624	1.358562	2.033140	0.694784	1.295166
911.000000	589.678419	1838.596728	1.358196	2.032153	0.281414	1.193140
912.000000	589.745317	1840.520395	1.357787	2.031205	0.434742	0.840256
913.000000	589.812214	1842.443626	1.357428	2.029795	0.527763	1.302602
914.000000	589.879112	1844.366421	1.356909	2.028134	0.489061	1.151024
915.000000	589.946009	1846.288780	1.356218	2.027341	0.429079	0.872592
916.000000	590.012907	1848.210703	1.355797	2.025551	0.351780	0.737267
917.000000	590.079804	1850.132190	1.355314	2.023472	0.370301	0.744921
918.000000	590.146702	1852.053241	1.354852	2.022361	0.296661	0.911244
919.000000	590.213599	1853.973857	1.354344	2.020845	0.465222	1.064429
920.000000	590.280496	1855.894038	1.353910	2.018605	0.438258	1.195999
921.000000	590.347394	1857.813783	1.353443	2.017294	0.543606	1.229223
922.000000	590.414291	1859.733094	1.352982	2.016011	0.418307	1.075754
923.000000	590.481189	1861.651969	1.352525	2.014372	0.419478	0.974673
924.000000	590.548086	1863.570410	1.351970	2.013062	0.513085	1.182199
925.000000	590.614984	1865.488416	1.351389	2.010876	0.512323	1.329826
926.000000	590.681881	1867.405988	1.350939	2.009084	0.383777	0.648039
927.000000	590.748779	1869.323125	1.350699	2.006833	0.368837	1.154029
928.000000	590.815676	1871.239828	1.350201	2.005086	0.706924	0.966232
929.000000	590.882574	1873.156098	1.349901	2.002847	0.338086	0.945024
930.000000	590.949471	1875.071933	1.349655	2.001773	0.442611	1.571924
931.000000	591.016369	1876.987335	1.349125	1.999799	0.489215	0.846381
932.000000	591.083266	1878.902303	1.348730	1.997910	0.573750	1.056652
933.000000	591.150164	1880.816838	1.348478	1.996349	0.304838	1.369855
934.000000	591.217061	1882.730939	1.347905	1.994540	0.322931	0.926888
935.000000	591.283959	1884.644607	1.347377	1.993025	0.580616	1.508370
936.000000	591.350856	1886.557843	1.346847	1.991390	0.477310	1.511731
937.000000	591.417754	1888.470645	1.346321	1.989429	0.471106	1.503380
938.000000	591.484651	1890.383015	1.345757	1.987590	0.457391	1.285802
939.000000	591.551548	1892.294952	1.345310	1.985584	0.544076	0.967984
940.000000	591.618446	1894.206457	1.344739	1.983945	0.415538	1.202382
941.000000	591.685343	1896.117530	1.344096	1.982543	0.400372	0.868161
942.000000	591.752241	1898.028171	1.343435	1.980210	0.600408	1.814845
943.000000	591.819138	1899.938379	1.342946	1.977705	0.583269	0.726307
944.000000	591.886036	1901.848156	1.342182	1.975932	0.487088	0.990905
945.000000	591.952933	1903.757501	1.341723	1.973654	0.561675	0.752562
946.000000	592.019831	1905.666415	1.341309	1.971826	0.468277	1.049825
947.000000	592.086728	1907.574897	1.340643	1.969341	0.499318	0.945753
948.000000	592.153626	1909.482948	1.339986	1.966914	0.335129	1.114882
949.000000	592.220523	1911.390568	1.339393	1.964839	0.492285	1.175034
950.000000	592.287421	1913.297758	1.338806	1.962756	0.570584	0.840484
951.000000	592.354318	1915.204516	1.338308	1.961128	0.518586	1.012760
952.000000	592.421216	1917.110844	1.337744	1.959023	0.632980	1.016854
953.000000	592.488113	1919.016741	1.337109	1.957026	0.698992	1.200544
954.000000	592.555011	1920.922208	1.336608	1.954047	0.374113	1.191144
955.000000	592.621908	1922.827244	1.336073	1.951965	0.336802	0.990322
956.000000	592.688806	1924.731851	1.335548	1.949543	0.622312	0.791340
957.000000	592.755703	1926.636028	1.334834	1.947349	0.344455	0.773134
958.000000	592.822601	1928.539775	1.334031	1.945478	0.450613	1.226993
959.000000	592.889498	1930.443092	1.333514	1.943660	0.569927	0.794837
960.000000	592.956395	1932.345980	1.332847	1.941634	0.553878	0.645071
961.000000	593.023293	1934.248439	1.332222	1.939656	0.543093	0.709514
962.000000	593.090190	1936.150468	1.331513	1.937319	0.419292	0.964684
963.000000	593.157088	1938.052069	1.330907	1.934438	0.601253	1.209315
964.000000	593.223985	1939.953240	1.330279	1.932493	0.861790	0.964749
965.000000	593.290883	1941.853983	1.329660	1.930243	0.666889	0.878789
966.000000	593.357780	1943.754297	1.329069	1.927301	0.434134	1.109266
967.000000	593.424678	1945.654183	1.328379	1.925272	0.386659	0.801039
968.000000	593.491575	1947.553640	1.327801	1.923367	0.436261	1.411772
969.000000	593.558473	1949.452669	1.327157	1.921002	0.399334	1.140117
970.000000	593.625370	1951.351271	1.326792	1.918561	0.631537	1.299892
971.000000	593.692268	1953.249444	1.326225	1.916525	0.441844	1.094814
972.000000	593.759165	1955.147190	1.325649	1.914313	0.508705	1.230446
973.000000	593.826063	1957.044508	1.325136	1.911837	0.400526	1.073742
974.000000	593.892960	1958.941398	1.324482	1.909253	0.521163	0.715886
975.000000	593.959858	1960.837862	1.324008	1.907244	0.593999	1.433838
976.000000	594.026755	1962.733898	1.323450	1.905432	0.521560	1.259318
977.000000	594.093653	1964.629507	1.322994	1.903516	0.334026	1.029861
978.000000	594.160550	1966.524689	1.322341	1.901817	0.458229	1.046924
979.000000	594.227447	1968.419445	1.321798	1.899408	0.657635	0.940315
980.000000	594.294345	1970.313774	1.321400	1.897769	0.449614	0.834649
981.000000	594.361242	1972.207677	1.320752	1.895004	0.405496	1.112499
982.000000	594.428140	1974.101153	1.320244	1.892870	0.595486	1.307884
983.000000	594.495037	1975.994203	1.319605	1.891073	0.578503	1.073234
984.000000	594.561935	1977.886827	1.319008	1.889158	0.462685	0.958423
985.000000	594.628832	1979.779026	1.318595	1.887124	0.384723	1.476240
986.000000	594.695730	1981.670798	1.318086	1.885062	0.360482	0.948222
987.000000	594.762627	1983.562145	1.317606	1.882866	0.722960	1.427789
988.000000	594.829525	1985.453067	1.317041	1.880735	0.403917	1.253367
989.000000	594.896422	1987.343563	1.316603	1.878430	0.501404	1.005934
990.000000	594.963320	1989.233635	1.316062	1.876518	0.352258	1.167231
991.000000	595.030217	1991.123281	1.315506	1.874539	0.465682	1.379962
992.000000	595.097115	1993.012502	1.315110	1.871830	0.384452	1.165755
993.000000	595.164012	1994.901299	1.314680	1.869978	0.298815	1.611740
994.000000	595.230910	1996.789671	1.314169	1.867687	0.431397	1.013580
995.000000	595.297807	1998.677619	1.313725	1.865814	0.417179	2.014517
996.000000	595.364705	2000.565142	1.313160	1.863254	0.550015	1.224802
997.000000	595.431602	2002.452242	1.312635	1.860752	0.248408	1.535991
998.000000	595.498499	2004.338917	1.312074	1.858697	0.360482	1.006449
999.000000	595.565397	2006.225168	1.311529	1.856395	0.485623	1.048475
1000.000000	595.632294	2008.110996	1.311159	1.854110	0.328049	1.204348
1001.000000	595.699192	2009.996401	1.310725	1.852003	0.587234	0.566030
1002.000000	595.766089	2011.881381	1.310232	1.849505	0.404335	1.203532
1003.000000	595.832987	2013.765939	1.309600	1.846996	0.451598	1.025928
1004.000000	595.899884	2015.650073	1.309146	1.844787	0.498660	1.181725
1005.000000	595.966782	2017.533785	1.308664	1.842982	0.449225	0.807109
1006.000000	596.033679	2019.417073	1.308056	1.840595	0.313213	0.980607
1007.000000	596.100577	2021.299939	1.307219	1.838361	0.629004	1.361814
1008.000000	596.167474	2023.182382	1.306680	1.836177	0.559305	1.152170
1009.000000	596.234372	2025.064403	1.306215	1.834102	0.564345	0.820612
1010.000000	596.301269	2026.946002	1.305707	1.831494	0.367227	1.119204
1011.000000	596.368167	2028.827178	1.305094	1.829457	0.401876	1.358695
1012.000000	596.435064	2030.707933	1.304504	1.826918	0.524370	1.625159
1013.000000	596.501962	2032.588265	1.304005	1.824510	0.544533	1.207185
1014.000000	596.568859	2034.468176	1.303450	1.822534	0.514057	1.546254
1015.000000	596.635757	2036.347666	1.302748	1.820057	0.605374	1.569050
1016.000000	596.702654	2038.226734	1.302141	1.817482	0.484501	0.902490
1017.000000	596.769552	2040.105380	1.301646	1.815528	0.417691	1.337839
1018.000000	596.836449	2041.983606	1.301068	1.813986	0.580803	1.114999
1019.000000	596.903346	2043.861410	1.300411	1.811712	0.414428	1.035944
1020.000000	596.970244	2045.738794	1.299937	1.809472	0.494827	1.936553
1021.000000	597.037141	2047.615757	1.299238	1.807492	0.480309	0.834503
1022.000000	597.104039	2049.492299	1.298491	1.805346	0.579453	1.053952
1023.000000	597.170936	2051.368421	1.297941	1.802978	0.467040	0.867751
1024.000000	597.237834	2053.244122	1.297228	1.800696	0.868946	1.375460
1025.000000	597.304731	2055.119404	1.296588	1.799291	0.443437	1.242322
1026.000000	597.371629	2056.994265	1.295890	1.796436	0.361459	1.392058
1027.000000	597.438526	2058.868707	1.295553	1.794040	0.468589	1.125553
1028.000000	597.505424	2060.742729	1.294932	1.791669	0.557295	1.124994
1029.000000	597.572321	2062.616331	1.294312	1.788703	0.403025	0.714254
1030.000000	597.639219	2064.489514	1.293914	1.786975	0.451909	1.561606
1031.000000	597.706116	2066.362277	1.293334	1.784308	0.676612	0.581422
1032.000000	597.773014	2068.234622	1.292829	1.782770	0.496172	0.665233
1033.000000	597.839911	2070.106547	1.292419	1.780479	0.442661	1.062074
1034.000000	597.906809	2071.978053	1.292043	1.778255	0.315278	0.790871
1035.000000	597.973706	2073.849141	1.291401	1.775746	0.500742	1.100622
1036.000000	598.040604	2075.719810	1.290811	1.773321	0.646609	1.128470
1037.000000	598.107501	2077.590061	1.290241	1.771073	0.600195	1.125281
1038.000000	598.174398	2079.459893	1.289717	1.768742	0.567349	1.436746
1039.000000	598.241296	2081.329307	1.289344	1.766514	0.321525	0.935885
1040.000000	598.308193	2083.198303	1.288746	1.764102	0.647224	1.139592
1041.000000	598.375091	2085.066881	1.288316	1.761779	0.355153	0.970483
1042.000000	598.441988	2086.935042	1.287866	1.759163	0.778434	1.487181
1043.000000	598.508886	2088.802784	1.287381	1.756891	0.368217	0.967935
1044.000000	598.575783	2090.670110	1.286808	1.754545	0.653909	1.451108
1045.000000	598.642681	2092.537018	1.286257	1.752077	0.572399	1.067313
1046.000000	598.709578	2094.403508	1.285885	1.749510	0.384679	1.533602
1047.000000	598.776476	2096.269582	1.285585	1.747404	0.518113	1.084104
1048.000000	598.843373	2098.135239	1.285077	1.744735	0.410331	0.954782
1049.000000	598.910271	2100.000479	1.284656	1.742067	0.455525	1.025968
1050.000000	598.977168	2101.865302	1.284360	1.740046	0.504934	0.965036
1051.000000	599.044066	2103.729709	1.283955	1.737908	0.370268	1.587209
1052.000000	599.110963	2105.593699	1.283490	1.735359	0.520086	1.468574
1053.000000	599.177861	2107.457274	1.282935	1.733219	0.471653	1.194909
1054.000000	599.244758	2109.320432	1.282444	1.730748	0.640263	1.337547
1055.000000	599.311656	2111.183174	1.281936	1.728121	0.350597	1.258730
1056.000000	599.378553	2113.045500	1.281184	1.725347	0.388203	0.815098
1057.000000	599.445450	2114.907411	1.280731	1.722857	0.320731	1.249020
1058.000000	599.512348	2116.768906	1.280341	1.719905	0.472212	1.175630
1059.000000	599.579245	2118.629986	1.279986	1.717882	0.391298	1.295998
1060.000000	599.646143	2120.490651	1.279504	1.715333	0.398178	1.192885
1061.000000	599.713040	2122.350900	1.278844	1.713099	0.453377	1.187127
1062.000000	599.779938	2124.210735	1.278426	1.710377	0.784528	0.899790
1063.000000	599.846835	2126.070154	1.278063	1.707500	0.421079	1.191658
1064.000000	599.913733	2127.929159	1.277637	1.704961	0.502958	0.829087
1065.000000	599.980630	2129.787750	1.277176	1.702375	0.515325	1.241857
1066.000000	600.047528	2131.645926	1.276819	1.699417	0.391373	0.930922
1067.000000	600.114425	2133.503687	1.276379	1.696895	0.421238	0.898372
1068.000000	600.181323	2135.361035	1.275942	1.694252	0.404123	0.849573
1069.000000	600.248220	2137.217969	1.275543	1.690884	0.335839	1.061064
1070.000000	600.315118	2139.074488	1.275311	1.687937	0.531395	1.137735
1071.000000	600.382015	2140.930594	1.274916	1.685560	0.527581	1.630923
1072.000000	600.448913	2142.786287	1.274623	1.682393	0.663769	0.941709
1073.000000	600.515810	2144.641566	1.274314	1.679559	0.494502	1.105128
1074.000000	600.582708	2146.496431	1.274090	1.676632	0.443015	1.161091
1075.000000	600.649605	2148.350884	1.273991	1.674136	0.641776	1.709921
1076.000000	600.716503	2150.204923	1.273900	1.670815	0.497292	1.418964
1077.000000	600.783400	2152.058550	1.273792	1.668302	0.638667	1.767564
1078.000000	600.850297	2153.911763	1.273577	1.665810	0.546976	0.806056
1079.000000	600.917195	2155.764564	1.273589	1.663108	0.452447	1.411587
1080.000000	600.984092	2157.616953	1.273469	1.661141	0.523023	0.858974
1081.000000	601.050990	2159.468929	1.273376	1.658419	0.375913	0.704846
1082.000000	601.117887	2161.320494	1.273371	1.655786	0.534331	1.205891
1083.000000	601.184785	2163.171646	1.273222	1.652901	0.512698	0.875735
1084.000000	601.251682	2165.022386	1.273072	1.650104	0.682310	0.881947
1085.000000	601.318580	2166.872714	1.272977	1.647399	0.341538	1.225220
1086.000000	601.385477	2168.722631	1.273111	1.644950	0.636696	1.847533
1087.000000	601.452375	2170.572136	1.273027	1.642120	0.585150	1.742514
1088.000000	601.519272	2172.421230	1.273111	1.639093	0.409061	1.313170
1089.000000	601.586170	2174.269912	1.273098	1.636048	0.609506	1.664694
1090.000000	601.653067	2176.118184	1.273013	1.633167	0.418449	0.839692
1091.000000	601.719965	2177.966044	1.272982	1.630468	0.498468	0.906779
1092.000000	601.786862	2179.813494	1.273021	1.627351	0.430092	0.665816
1093.000000	601.853760	2181.660532	1.273074	1.624347	0.426886	0.823993
1094.000000	601.920657	2183.507161	1.273124	1.621586	0.494745	0.594136
1095.000000	601.987555	2185.353379	1.273171	1.618513	0.401229	1.394778
1096.000000	602.054452	2187.199186	1.273251	1.615887	0.494875	1.017589
1097.000000	602.121349	2189.044584	1.273413	1.612682	0.573890	1.118786
1098.000000	602.188247	2190.889571	1.273394	1.610061	0.505792	1.358505
1099.000000	602.255144	2192.734149	1.273445	1.607304	0.319646	0.942641
1100.000000	602.322042	2194.578317	1.273553	1.604725	0.404637	1.135020
1101.000000	602.388939	2196.422075	1.273562	1.601877	0.498111	1.541014
1102.000000	602.455837	2198.265424	1.273449	1.598713	0.530913	1.360473
1103.000000	602.522734	2200.108363	1.273551	1.595697	0.489933	0.964430
1104.000000	602.589632	2201.950894	1.273530	1.592561	0.548797	1.507254
1105.000000	602.656529	2203.793015	1.273529	1.589501	0.336700	1.226866
1106.000000	602.723427	2205.634727	1.273613	1.586779	0.438441	0.962716
1107.000000	602.790324	2207.476031	1.273761	1.584170	0.619261	1.138693
1108.000000	602.857222	2209.316925	1.273784	1.581577	0.439147	1.088984
1109.000000	602.924119	2211.157412	1.273826	1.579189	0.297478	1.090415
1110.000000	602.991017	2212.997490	1.273628	1.576153	0.625870	1.220175
1111.000000	603.057914	2214.837159	1.273518	1.573458	0.319113	1.269802
1112.000000	603.124812	2216.676421	1.273492	1.571230	0.624250	0.878051
1113.000000	603.191709	2218.515275	1.273367	1.568608	0.557814	0.880076
1114.000000	603.258607	2220.353720	1.273150	1.566107	0.496291	1.466140
1115.000000	603.325504	2222.191759	1.272987	1.563428	0.521032	1.985475
1116.000000	603.392401	2224.029389	1.272843	1.560369	0.632362	1.091268
1117.000000	603.459299	2225.866612	1.272555	1.557510	0.541004	1.089254
1118.000000	603.526196	2227.703428	1.272457	1.554973	0.589426	1.042983
1119.000000	603.593094	2229.539837	1.272317	1.551652	0.374945	1.182790
1120.000000	603.659991	2231.375838	1.272282	1.548983	0.417660	0.891735
1121.000000	603.726889	2233.211433	1.272147	1.546271	0.293847	1.546802
1122.000000	603.793786	2235.046621	1.272118	1.543075	0.750078	1.912131
1123.000000	603.860684	2236.881403	1.271907	1.540326	0.550220	1.341234
1124.000000	603.927581	2238.715778	1.271948	1.537466	0.423364	1.047266
1125.000000	603.994479	2240.549746	1.271768	1.534291	0.418289	0.870923
1126.000000	604.061376	2242.383308	1.271384	1.531911	0.703052	1.064130
1127.000000	604.128274	2244.216465	1.271206	1.528891	0.380449	0.891411
1128.000000	604.195171	2246.049215	1.271026	1.525980	0.313006	1.146823
1129.000000	604.262069	2247.881560	1.270695	1.522639	0.469424	1.140923
1130.000000	604.328966	2249.713499	1.270386	1.519498	0.461587	1.143909
1131.000000	604.395864	2251.545032	1.270090	1.516189	0.435470	1.016980
1132.000000	604.462761	2253.376160	1.269782	1.513262	0.412182	0.972503
1133.000000	604.529659	2255.206882	1.269339	1.510073	0.409676	1.442874
1134.000000	604.596556	2257.037200	1.269145	1.506921	0.486364	1.162518
1135.000000	604.663454	2258.867113	1.268858	1.503419	0.669776	1.439682
1136.000000	604.730351	2260.696620	1.268397	1.500265	0.280327	1.094249
1137.000000	604.797248	2262.525723	1.267861	1.496880	0.678812	1.915157
1138.000000	604.864146	2264.354422	1.267387	1.494183	0.343111	1.193880
1139.000000	604.931043	2266.182715	1.266801	1.491023	0.325713	1.271069
1140.000000	604.997941	2268.010605	1.266307	1.487825	0.369726	1.218184
1141.000000	605.064838	2269.838090	1.265787	1.484640	0.313059	0.925853
1142.000000	605.131736	2271.665172	1.265446	1.481564	0.649064	1.035584
1143.000000	605.198633	2273.491849	1.264827	1.478229	0.438098	1.449289
1144.000000	605.265531	2275.318123	1.264225	1.475397	0.443941	1.184649
1145.000000	605.332428	2277.143993	1.263531	1.472397	0.510641	1.286953
1146.000000	605.399326	2278.969459	1.262949	1.469473	0.294694	1.144298
1147.000000	605.466223	2280.794522	1.262376	1.466650	0.348124	2.027013
1148.000000	605.533121	2282.619182	1.261736	1.463697	0.252387	1.337722
1149.000000	605.600018	2284.443439	1.261016	1.460062	0.407987	1.100975
1150.000000	605.666916	2286.267292	1.260191	1.457793	0.447139	0.919019
1151.000000	605.733813	2288.090743	1.259461	1.454451	0.488287	0.802196
1152.000000	605.800711	2289.913791	1.258781	1.451360	0.403182	0.964643
1153.000000	605.867608	2291.736437	1.258095	1.448712	0.649409	1.556540
1154.000000	605.934506	2293.558680	1.257238	1.446680	0.424101	1.415907
1155.000000	606.001403	2295.380520	1.256548	1.444462	0.452526	1.802122
1156.000000	606.068300	2297.201959	1.255614	1.441817	0.332285	0.715853
1157.000000	606.135198	2299.022996	1.254736	1.439389	0.532077	1.311481
1158.000000	606.202095	2300.843630	1.253670	1.437093	0.413027	0.942327
1159.000000	606.268993	2302.663863	1.252638	1.434344	0.480677	0.988278
1160.000000	606.335890	2304.483694	1.251486	1.432570	0.347894	0.994022
1161.000000	606.402788	2306.303124	1.250385	1.430181	0.323299	1.877232
1162.000000	606.469685	2308.122152	1.249231	1.427635	0.459809	1.409107
1163.000000	606.536583	2309.940779	1.248157	1.424351	0.335962	1.014569
1164.000000	606.603480	2311.759005	1.247079	1.421546	0.605285	1.517537
1165.000000	606.670378	2313.576830	1.245947	1.418755	0.391332	0.906831
1166.000000	606.737275	2315.394253	1.244920	1.415783	0.293792	1.645831
1167.000000	606.804173	2317.211277	1.243822	1.413119	0.433596	1.650646
1168.000000	606.871070	2319.027899	1.242988	1.410056	0.657154	1.272576
1169.000000	606.937968	2320.844122	1.241844	1.407135	0.455996	0.922291
1170.000000	607.004865	2322.659944	1.240897	1.404920	0.301423	1.697356
1171.000000	607.071763	2324.475365	1.239818	1.402544	0.336511	2.186757
1172.000000	607.138660	2326.290387	1.238805	1.399657	0.446085	1.669268
1173.000000	607.205558	2328.105009	1.237795	1.396676	0.481722	1.227118
1174.000000	607.272455	2329.919230	1.236727	1.394047	0.227973	1.346782
1175.000000	607.339352	2331.733053	1.235594	1.391388	0.390419	1.044796
1176.000000	607.406250	2333.546475	1.234391	1.389085	0.572489	1.046406
1177.000000	607.473147	2335.359499	1.233299	1.386180	0.451268	2.034103
1178.000000	607.540045	2337.172123	1.232055	1.384065	0.472220	1.155983
1179.000000	607.606942	2338.984347	1.230914	1.381915	0.464991	1.512376
1180.000000	607.673840	2340.796173	1.229773	1.379587	0.375560	0.877488
1181.000000	607.740737	2342.607600	1.228554	1.377027	0.555937	1.129044
1182.000000	607.807635	2344.418629	1.227517	1.374639	0.575917	1.362447
1183.000000	607.874532	2346.229258	1.226461	1.371937	0.622854	1.646200
1184.000000	607.941430	2348.039489	1.225335	1.369876	0.396656	1.140479
1185.000000	608.008327	2349.849322	1.224019	1.367389	0.439742	0.931329
1186.000000	608.075225	2351.658757	1.222721	1.365359	0.449042	1.205254
1187.000000	608.142122	2353.467793	1.221431	1.363234	0.461154	1.619203
1188.000000	608.209020	2355.276432	1.220298	1.360431	0.422520	1.194399
1189.000000	608.275917	2357.084673	1.219034	1.357501	0.239635	1.255416
1190.000000	608.342815	2358.892516	1.217783	1.354842	0.517559	1.087270
1191.000000	608.409712	2360.699961	1.216282	1.352336	0.394755	1.223743
1192.000000	608.476610	2362.507009	1.214926	1.349908	0.453272	1.469243
1193.000000	608.543507	2364.313660	1.213349	1.347356	0.360658	0.657395
1194.000000	608.610405	2366.119913	1.212000	1.344939	0.403697	1.300283
1195.000000	608.677302	2367.925770	1.210642	1.342248	0.412786	1.864671
1196.000000	608.744199	2369.731229	1.209218	1.339830	0.357121	1.385504
1197.000000	608.811097	2371.536292	1.207766	1.337477	0.403281	1.262129
1198.000000	608.877994	2373.340959	1.206413	1.334751	0.470719	1.372037
1199.000000	608.944892	2375.145228	1.204810	1.332173	0.562641	1.046704
1200.000000	609.011789	2376.949102	1.203387	1.330293	0.578473	0.999612
1201.000000	609.078687	2378.752579	1.202139	1.327440	0.522564	1.342044
1202.000000	609.145584	2380.555660	1.200712	1.325159	0.340206	1.137846
1203.000000	609.212482	2382.358344	1.199232	1.322972	0.443751	1.578425
1204.000000	609.279379	2384.160634	1.197667	1.321000	0.625455	0.885187
1205.000000	609.346277	2385.962527	1.196116	1.318276	0.489796	1.344605
1206.000000	609.413174	2387.764025	1.194427	1.315587	0.525409	1.264230
1207.000000	609.480072	2389.565127	1.192855	1.313576	0.578215	1.271714
1208.000000	609.546969	2391.365834	1.191226	1.311207	0.622328	0.942007
1209.000000	609.613867	2393.166146	1.189761	1.308431	0.502293	1.765748
1210.000000	609.680764	2394.966062	1.188157	1.306059	0.427192	1.264684
1211.000000	609.747662	2396.765584	1.186636	1.302933	0.671992	1.247432
1212.000000	609.814559	2398.564711	1.185083	1.300600	0.679181	1.036672
1213.000000	609.881457	2400.363443	1.183615	1.297931	0.517017	1.817044
1214.000000	609.948354	2402.161781	1.182011	1.295244	0.481255	1.142627
1215.000000	610.015251	2403.959724	1.180423	1.292617	0.428525	1.593831
1216.000000	610.082149	2405.757273	1.178922	1.290553	0.584208	1.395212
1217.000000	610.149046	2407.554427	1.177435	1.288259	0.415961	2.017752
1218.000000	610.215944	2409.351188	1.175912	1.285586	0.453338	1.439415
1219.000000	610.282841	2411.147555	1.174278	1.283465	0.401683	1.274015
1220.000000	610.349739	2412.943528	1.172872	1.281456	0.602880	1.940632
1221.000000	610.416636	2414.739107	1.171204	1.279011	0.289015	0.801767
1222.000000	610.483534	2416.534293	1.169649	1.276432	0.493116	1.212914
1223.000000	610.550431	2418.329085	1.167997	1.274435	0.417945	1.659126
1224.000000	610.617329	2420.123485	1.166225	1.272610	0.569346	1.500308
1225.000000	610.684226	2421.917491	1.164737	1.270440	0.566817	1.459089
1226.000000	610.751124	2423.711104	1.163131	1.268374	0.640925	1.420770
1227.000000	610.818021	2425.504324	1.161528	1.266568	0.670239	1.830804
1228.000000	610.884919	2427.297151	1.160002	1.264457	0.561737	1.471235
1229.000000	610.951816	2429.089586	1.158529	1.262082	0.410072	1.374200
1230.000000	611.018714	2430.881628	1.156965	1.259733	0.678202	1.362069
1231.000000	611.085611	2432.673278	1.155445	1.257419	0.396993	1.139672
1232.000000	611.152509	2434.464536	1.153890	1.255265	0.348943	0.936490
1233.000000	611.219406	2436.255401	1.152251	1.252780	0.532019	1.704760
1234.000000	611.286303	2438.045875	1.150506	1.251061	0.567688	1.657136
1235.000000	611.353201	2439.835957	1.148839	1.248535	0.402402	1.044788
1236.000000	611.420098	2441.625647	1.147194	1.245951	0.551967	1.280351
1237.000000	611.486996	2443.414945	1.145408	1.244008	0.671874	1.544245
1238.000000	611.553893	2445.203852	1.143788	1.241238	0.339798	1.001836
1239.000000	611.620791	2446.992368	1.141830	1.238526	0.673270	1.373479
1240.000000	611.687688	2448.780492	1.140051	1.236430	0.558466	1.016736
1241.000000	611.754586	2450.568226	1.138309	1.234054	0.692075	1.168508
1242.000000	611.821483	2452.355568	1.136748	1.231880	0.637867	1.863379
1243.000000	611.888381	2454.142520	1.135002	1.229478	0.393141	1.196394
1244.000000	611.955278	2455.929081	1.133389	1.226901	0.550698	1.144439
1245.000000	612.022176	2457.715251	1.131667	1.224510	0.381197	1.436520
1246.000000	612.089073	2459.501031	1.129822	1.222525	0.351881	1.698088
1247.000000	612.155971	2461.286421	1.128126	1.220216	0.498086	1.103406
1248.000000	612.222868	2463.071420	1.126382	1.217888	0.359710	1.528222
1249.000000	612.289766	2464.856029	1.124678	1.215408	0.518270	1.315664
1250.000000	612.356663	2466.640249	1.123110	1.213059	0.357089	1.810097
1251.000000	612.423561	2468.424079	1.121363	1.210357	0.326134	1.589899
1252.000000	612.490458	2470.207519	1.119593	1.207930	0.319515	1.292763
1253.000000	612.557356	2471.990569	1.117889	1.205723	0.615861	1.506245
1254.000000	612.624253	2473.773230	1.115991	1.203470	0.675323	1.521928
1255.000000	612.691150	2475.555502	1.114308	1.200788	0.566091	1.016991
1256.000000	612.758048	2477.337385	1.112592	1.198717	0.422600	1.614852
1257.000000	612.824945	2479.118878	1.110908	1.195762	0.515328	0.877013
1258.000000	612.891843	2480.899983	1.109396	1.192916	0.596595	1.899215
1259.000000	612.958740	2482.680699	1.107621	1.190297	0.470852	1.199500
1260.000000	613.025638	2484.461026	1.105829	1.187980	0.444963	1.144600
1261.000000	613.092535	2486.240965	1.104065	1.185621	0.341466	1.284886
1262.000000	613.159433	2488.020515	1.102395	1.183274	0.382784	1.215866
1263.000000	613.226330	2489.799677	1.100596	1.180707	0.617822	1.122398
1264.000000	613.293228	2491.578451	1.098796	1.178149	0.632700	1.097713
1265.000000	613.360125	2493.356837	1.097143	1.175821	0.429473	0.751134
1266.000000	613.427023	2495.134835	1.095456	1.173521	0.578827	1.078448
1267.000000	613.493920	2496.912445	1.093877	1.170642	0.508404	1.281720
1268.000000	613.560818	2498.689668	1.092160	1.168334	0.352235	1.259815
1269.000000	613.627715	2500.466503	1.090505	1.166224	0.454419	1.976988
1270.000000	613.694613	2502.242951	1.088762	1.164004	0.522410	0.907356
1271.000000	613.761510	2504.019012	1.087113	1.161164	0.447880	1.060092
1272.000000	613.828408	2505.794685	1.085511	1.158691	0.478957	2.082097
1273.000000	613.895305	2507.569971	1.083683	1.156581	0.338646	1.329456
1274.000000	613.962202	2509.344871	1.082029	1.154385	0.389971	1.305032
1275.000000	614.029100	2511.119384	1.080501	1.152170	0.432264	1.524027
1276.000000	614.095997	2512.893510	1.078762	1.150079	0.518216	0.903227
1277.000000	614.162895	2514.667250	1.077127	1.147699	0.358871	1.505224
1278.000000	614.229792	2516.440603	1.075626	1.145493	0.245825	1.171171
1279.000000	614.296690	2518.213570	1.074114	1.143093	0.510411	1.850953
1280.000000	614.363587	2519.986151	1.072439	1.140888	0.323221	1.376384
1281.000000	614.430485	2521.758346	1.070815	1.138726	0.628395	1.763219
1282.000000	614.497382	2523.530155	1.069209	1.136413	0.684722	1.424835
1283.000000	614.564280	2525.301578	1.067592	1.134136	0.660755	1.579145
1284.000000	614.631177	2527.072616	1.066053	1.132223	0.534665	1.240142
1285.000000	614.698075	2528.843268	1.064493	1.129922	0.609121	1.404013
1286.000000	614.764972	2530.613535	1.062967	1.127718	0.750020	1.338900
1287.000000	614.831870	2532.383417	1.061337	1.125749	0.733258	1.267492
1288.000000	614.898767	2534.152914	1.059900	1.123253	0.358929	1.838714
1289.000000	614.965665	2535.922025	1.058393	1.121088	0.506037	1.477577
1290.000000	615.032562	2537.690752	1.056967	1.119258	0.503523	1.274716
1291.000000	615.099460	2539.459094	1.055721	1.117004	0.676771	1.156904
1292.000000	615.166357	2541.227051	1.054225	1.114723	0.320941	1.032391
1293.000000	615.233254	2542.994624	1.052761	1.112704	0.415413	1.674029
1294.000000	615.300152	2544.761813	1.051342	1.110217	0.329027	1.095086
1295.000000	615.367049	2546.528617	1.050060	1.108178	0.629409	1.089017
1296.000000	615.433947	2548.295038	1.048713	1.105833	0.437596	1.442926
1297.000000	615.500844	2550.061074	1.047413	1.103061	0.561542	1.484728
1298.000000	615.567742	2551.826726	1.046036	1.100724	0.558036	1.941609
1299.000000	615.634639	2553.591995	1.044824	1.098244	0.405638	2.371493
1300.000000	615.701537	2555.356880	1.043501	1.095685	0.748417	1.470778
1301.000000	615.768434	2557.121382	1.042154	1.093481	0.487595	1.493550
1302.000000	615.835332	2558.885500	1.041026	1.091220	0.549367	1.519868
1303.000000	615.902229	2560.649235	1.039788	1.088669	0.762937	0.937334
1304.000000	615.969127	2562.412587	1.038453	1.086542	0.525882	0.978791
1305.000000	616.036024	2564.175556	1.037230	1.083928	0.399161	0.964740
1306.000000	616.102922	2565.938142	1.036013	1.081468	0.454152	0.888090
1307.000000	616.169819	2567.700346	1.034799	1.078644	0.814478	1.358985
1308.000000	616.236717	2569.462166	1.033614	1.076388	0.471888	1.838755
1309.000000	616.303614	2571.223605	1.032423	1.074108	0.657962	1.448560
1310.000000	616.370512	2572.984661	1.031282	1.071461	0.576854	1.409675
1311.000000	616.437409	2574.745334	1.030195	1.068506	0.424114	1.713318
1312.000000	616.504307	2576.505626	1.029135	1.065540	0.461113	1.379561
1313.000000	616.571204	2578.265536	1.027953	1.062651	0.497986	1.686915
1314.000000	616.638101	2580.025063	1.027002	1.059785	0.749340	0.928120
1315.000000	616.704999	2581.784209	1.025920	1.057028	0.619887	1.403373
1316.000000	616.771896	2583.542974	1.024848	1.054277	0.625331	1.340011
1317.000000	616.838794	2585.301357	1.023785	1.051536	0.356582	1.353787
1318.000000	616.905691	2587.059358	1.022732	1.048806	0.347297	1.267969
1319.000000	616.972589	2588.816979	1.021688	1.046092	0.532906	1.414822
1320.000000	617.039486	2590.574218	1.020653	1.043397	0.479969	1.388211
1321.000000	617.106384	2592.331076	1.019627	1.040724	0.822494	1.642382
1322.000000	617.173281	2594.087554	1.018609	1.038076	0.504032	1.496087
1323.000000	617.240179	2595.843650	1.017599	1.035456	0.619285	2.141758
1324.000000	617.307076	2597.599366	1.016596	1.032867	0.503660	1.535191
1325.000000	617.373974	2599.354702	1.015601	1.030314	0.496060	1.389165
1326.000000	617.440871	2601.109657	1.014612	1.027798	0.529423	1.655636
1327.000000	617.507769	2602.864232	1.013631	1.025323	0.288089	1.312097
1328.000000	617.574666	2604.618427	1.012656	1.022893	0.492279	1.285081
1329.000000	617.641564	2606.372242	1.011687	1.020510	0.525711	1.209821
1330.000000	617.708461	2608.125677	1.010724	1.018178	0.367986	2.117982
1331.000000	617.775359	2609.878732	1.009766	1.015900	0.434288	1.350103
1332.000000	617.842256	2611.631407	1.008814	1.013679	0.466855	1.018864
1333.000000	617.909153	2613.383704	1.007866	1.011518	0.553817	0.900650
1334.000000	617.976051	2615.135620	1.006923	1.009421	0.649177	1.755558
1335.000000	618.042948	2616.887158	1.005985	1.007391	0.725574	1.285287
1336.000000	618.109846	2618.638316	1.005050	1.005431	0.576468	1.857034
1337.000000	618.176743	2620.389095	1.004120	1.003544	0.692285	1.749125
1338.000000	618.243641	2622.139496	1.003192	1.001733	0.603669	1.628294
1339.000000	618.310538	2623.889517	1.002268	1.000002	0.344064	1.305914
