# pixel	lambda_nm	raman_cm1
0.000000	528.734820	-116.080054
1.000000	528.801717	-113.687405
2.000000	528.868615	-111.295362
3.000000	528.935512	-108.903923
4.000000	529.002410	-106.513090
5.000000	529.069307	-104.122861
6.000000	529.136205	-101.733236
7.000000	529.203102	-99.344216
8.000000	529.270000	-96.955799
9.000000	529.336897	-94.567986
10.000000	529.403795	-92.180777
11.000000	529.470692	-89.794171
12.000000	529.537590	-87.408168
13.000000	529.604487	-85.022768
14.000000	529.671385	-82.637970
15.000000	529.738282	-80.253774
16.000000	529.805179	-77.870181
17.000000	529.872077	-75.487189
18.000000	529.938974	-73.104800
19.000000	530.005872	-70.723011
20.000000	530.072769	-68.341824
21.000000	530.139667	-65.961238
22.000000	530.206564	-63.581252
23.000000	530.273462	-61.201867
24.000000	530.340359	-58.823082
25.000000	530.407257	-56.444898
26.000000	530.474154	-54.067313
27.000000	530.541052	-51.690327
28.000000	530.607949	-49.313941
29.000000	530.674847	-46.938155
30.000000	530.741744	-44.562967
31.000000	530.808642	-42.188377
32.000000	530.875539	-39.814387
33.000000	530.942437	-37.440994
34.000000	531.009334	-35.068200
35.000000	531.076231	-32.696003
36.000000	531.143129	-30.324404
37.000000	531.210026	-27.953402
38.000000	531.276924	-25.582997
39.000000	531.343821	-23.213189
40.000000	531.410719	-20.843978
41.000000	531.477616	-18.475363
42.000000	531.544514	-16.107345
43.000000	531.611411	-13.739922
44.000000	531.678309	-11.373095
45.000000	531.745206	-9.006864
46.000000	531.812104	-6.641228
47.000000	531.879001	-4.276187
48.000000	531.945899	-1.911741
49.000000	532.012796	0.452111
50.000000	532.079694	2.815368
51.000000	532.146591	5.178030
52.000000	532.213489	7.540099
53.000000	532.280386	9.901574
54.000000	532.347283	12.262456
55.000000	532.414181	14.622744
56.000000	532.481078	16.982440
57.000000	532.547976	19.341542
58.000000	532.614873	21.700052
59.000000	532.681771	24.057970
60.000000	532.748668	26.415295
61.000000	532.815566	28.772028
62.000000	532.882463	31.128170
63.000000	532.949361	33.483720
64.000000	533.016258	35.838679
65.000000	533.083156	38.193047
66.000000	533.150053	40.546824
67.000000	533.216951	42.900010
68.000000	533.283848	45.252606
69.000000	533.350746	47.604612
70.000000	533.417643	49.956027
71.000000	533.484541	52.306854
72.000000	533.551438	54.657090
73.000000	533.618336	57.006738
74.000000	533.685233	59.355796
75.000000	533.752130	61.704265
76.000000	533.819028	64.052146
77.000000	533.885925	66.399439
78.000000	533.952823	68.746143
79.000000	534.019720	71.092259
80.000000	534.086618	73.437788
81.000000	534.153515	75.782729
82.000000	534.220413	78.127083
83.000000	534.287310	80.470849
84.000000	534.354208	82.814029
85.000000	534.421105	85.156623
86.000000	534.488003	87.498629
87.000000	534.554900	89.840050
88.000000	534.621798	92.180885
89.000000	534.688695	94.521134
90.000000	534.755593	96.860797
91.000000	534.822490	99.199875
92.000000	534.889388	101.538368
93.000000	534.956285	103.876276
94.000000	535.023182	106.213600
95.000000	535.090080	108.550339
96.000000	535.156977	110.886494
97.000000	535.223875	113.222065
98.000000	535.290772	115.557052
99.000000	535.357670	117.891455
100.000000	535.424567	120.225276
101.000000	535.491465	122.558513
102.000000	535.558362	124.891167
103.000000	535.625260	127.223239
104.000000	535.692157	129.554728
105.000000	535.759055	131.885634
106.000000	535.825952	134.215959
107.000000	535.892850	136.545702
108.000000	535.959747	138.874864
109.000000	536.026645	141.203444
110.000000	536.093542	143.531443
111.000000	536.160440	145.858861
112.000000	536.227337	148.185698
113.000000	536.294234	150.511955
114.000000	536.361132	152.837631
115.000000	536.428029	155.162727
116.000000	536.494927	157.487244
117.000000	536.561824	159.811181
118.000000	536.628722	162.134538
119.000000	536.695619	164.457317
120.000000	536.762517	166.779516
121.000000	536.829414	169.101137
122.000000	536.896312	171.422179
123.000000	536.963209	173.742642
124.000000	537.030107	176.062528
125.000000	537.097004	178.381835
126.000000	537.163902	180.700565
127.000000	537.230799	183.018718
128.000000	537.297697	185.336293
129.000000	537.364594	187.653291
130.000000	537.431492	189.969713
131.000000	537.498389	192.285557
132.000000	537.565287	194.600826
133.000000	537.632184	196.915518
134.000000	537.699081	199.229634
135.000000	537.765979	201.543175
136.000000	537.832876	203.856140
137.000000	537.899774	206.168529
138.000000	537.966671	208.480344
139.000000	538.033569	210.791584
140.000000	538.100466	213.102249
141.000000	538.167364	215.412339
142.000000	538.234261	217.721855
143.000000	538.301159	220.030798
144.000000	538.368056	222.339166
145.000000	538.434954	224.646961
146.000000	538.501851	226.954182
147.000000	538.568749	229.260830
148.000000	538.635646	231.566906
149.000000	538.702544	233.872408
150.000000	538.769441	236.177338
151.000000	538.836339	238.481696
152.000000	538.903236	240.785482
153.000000	538.970133	243.088695
154.000000	539.037031	245.391337
155.000000	539.103928	247.693408
156.000000	539.170826	249.994907
157.000000	539.237723	252.295835
158.000000	539.304621	254.596193
159.000000	539.371518	256.895979
160.000000	539.438416	259.195196
161.000000	539.505313	261.493842
162.000000	539.572211	263.791918
163.000000	539.639108	266.089425
164.000000	539.706006	268.386361
165.000000	539.772903	270.682729
166.000000	539.839801	272.978527
167.000000	539.906698	275.273757
168.000000	539.973596	277.568418
169.000000	540.040493	279.862510
170.000000	540.107391	282.156034
171.000000	540.174288	284.448990
172.000000	540.241185	286.741378
173.000000	540.308083	289.033198
174.000000	540.374980	291.324451
175.000000	540.441878	293.615136
176.000000	540.508775	295.905255
177.000000	540.575673	298.194807
178.000000	540.642570	300.483792
179.000000	540.709468	302.772211
180.000000	540.776365	305.060064
181.000000	540.843263	307.347350
182.000000	540.910160	309.634071
183.000000	540.977058	311.920226
184.000000	541.043955	314.205816
185.000000	541.110853	316.490841
186.000000	541.177750	318.775301
187.000000	541.244648	321.059196
188.000000	541.311545	323.342527
189.000000	541.378443	325.625294
190.000000	541.445340	327.907496
191.000000	541.512238	330.189134
192.000000	541.579135	332.470209
193.000000	541.646032	334.750720
194.000000	541.712930	337.030669
195.000000	541.779827	339.310054
196.000000	541.846725	341.588876
197.000000	541.913622	343.867135
198.000000	541.980520	346.144832
199.000000	542.047417	348.421967
200.000000	542.114315	350.698540
201.000000	542.181212	352.974551
202.000000	542.248110	355.250001
203.000000	542.315007	357.524889
204.000000	542.381905	359.799216
205.000000	542.448802	362.072982
206.000000	542.515700	364.346188
207.000000	542.582597	366.618832
208.000000	542.649495	368.890917
209.000000	542.716392	371.162441
210.000000	542.783290	373.433405
211.000000	542.850187	375.703810
212.000000	542.917084	377.973655
213.000000	542.983982	380.242941
214.000000	543.050879	382.511668
215.000000	543.117777	384.779835
216.000000	543.184674	387.047445
217.000000	543.251572	389.314495
218.000000	543.318469	391.580988
219.000000	543.385367	393.846922
220.000000	543.452264	396.112298
221.000000	543.519162	398.377117
222.000000	543.586059	400.641378
223.000000	543.652957	402.905083
224.000000	543.719854	405.168230
225.000000	543.786752	407.430820
226.000000	543.853649	409.692853
227.000000	543.920547	411.954331
228.000000	543.987444	414.215252
229.000000	544.054342	416.475617
230.000000	544.121239	418.735426
231.000000	544.188136	420.994679
232.000000	544.255034	423.253378
233.000000	544.321931	425.511520
234.000000	544.388829	427.769108
235.000000	544.455726	430.026142
236.000000	544.522624	432.282620
237.000000	544.589521	434.538545
238.000000	544.656419	436.793915
239.000000	544.723316	439.048731
240.000000	544.790214	441.302993
241.000000	544.857111	443.556702
242.000000	544.924009	445.809857
243.000000	544.990906	448.062460
244.000000	545.057804	450.314509
245.000000	545.124701	452.566006
246.000000	545.191599	454.816950
247.000000	545.258496	457.067342
248.000000	545.325394	459.317181
249.000000	545.392291	461.566469
250.000000	545.459189	463.815205
251.000000	545.526086	466.063389
252.000000	545.592983	468.311022
253.000000	545.659881	470.558104
254.000000	545.726778	472.804635
255.000000	545.793676	475.050616
256.000000	545.860573	477.296046
257.000000	545.927471	479.540925
258.000000	545.994368	481.785255
259.000000	546.061266	484.029034
260.000000	546.128163	486.272264
261.000000	546.195061	488.514945
262.000000	546.261958	490.757076
263.000000	546.328856	492.998658
264.000000	546.395753	495.239691
265.000000	546.462651	497.480175
266.000000	546.529548	499.720111
267.000000	546.596446	501.959499
268.000000	546.663343	504.198338
269.000000	546.730241	506.436630
270.000000	546.797138	508.674374
271.000000	546.864035	510.911570
272.000000	546.930933	513.148219
273.000000	546.997830	515.384322
274.000000	547.064728	517.619877
275.000000	547.131625	519.854885
276.000000	547.198523	522.089347
277.000000	547.265420	524.323263
278.000000	547.332318	526.556633
279.000000	547.399215	528.789457
280.000000	547.466113	531.021735
281.000000	547.533010	533.253468
282.000000	547.599908	535.484655
283.000000	547.666805	537.715297
284.000000	547.733703	539.945395
285.000000	547.800600	542.174948
286.000000	547.867498	544.403956
287.000000	547.934395	546.632420
288.000000	548.001293	548.860340
289.000000	548.068190	551.087716
290.000000	548.135087	553.314548
291.000000	548.201985	555.540837
292.000000	548.268882	557.766583
293.000000	548.335780	559.991785
294.000000	548.402677	562.216445
295.000000	548.469575	564.440562
296.000000	548.536472	566.664136
297.000000	548.603370	568.887168
298.000000	548.670267	571.109658
299.000000	548.737165	573.331607
300.000000	548.804062	575.553013
301.000000	548.870960	577.773878
302.000000	548.937857	579.994202
303.000000	549.004755	582.213984
304.000000	549.071652	584.433226
305.000000	549.138550	586.651927
306.000000	549.205447	588.870087
307.000000	549.272345	591.087707
308.000000	549.339242	593.304787
309.000000	549.406140	595.521327
310.000000	549.473037	597.737328
311.000000	549.539934	599.952789
312.000000	549.606832	602.167710
313.000000	549.673729	604.382093
314.000000	549.740627	606.595936
315.000000	549.807524	608.809241
316.000000	549.874422	611.022007
317.000000	549.941319	613.234235
318.000000	550.008217	615.445924
319.000000	550.075114	617.657076
320.000000	550.142012	619.867690
321.000000	550.208909	622.077767
322.000000	550.275807	624.287306
323.000000	550.342704	626.496308
324.000000	550.409602	628.704773
325.000000	550.476499	630.912701
326.000000	550.543397	633.120092
327.000000	550.610294	635.326947
328.000000	550.677192	637.533267
329.000000	550.744089	639.739050
330.000000	550.810986	641.944297
331.000000	550.877884	644.149008
332.000000	550.944781	646.353185
333.000000	551.011679	648.556826
334.000000	551.078576	650.759932
335.000000	551.145474	652.962503
336.000000	551.212371	655.164539
337.000000	551.279269	657.366041
338.000000	551.346166	659.567009
339.000000	551.413064	661.767443
340.000000	551.479961	663.967343
341.000000	551.546859	666.166709
342.000000	551.613756	668.365542
343.000000	551.680654	670.563842
344.000000	551.747551	672.761608
345.000000	551.814449	674.958842
346.000000	551.881346	677.155543
347.000000	551.948244	679.351712
348.000000	552.015141	681.547348
349.000000	552.082038	683.742452
350.000000	552.148936	685.937024
351.000000	552.215833	688.131064
352.000000	552.282731	690.324573
353.000000	552.349628	692.517551
354.000000	552.416526	694.709997
355.000000	552.483423	696.901913
356.000000	552.550321	699.093298
357.000000	552.617218	701.284152
358.000000	552.684116	703.474476
359.000000	552.751013	705.664269
360.000000	552.817911	707.853533
361.000000	552.884808	710.042267
362.000000	552.951706	712.230471
363.000000	553.018603	714.418146
364.000000	553.085501	716.605292
365.000000	553.152398	718.791908
366.000000	553.219296	720.977996
367.000000	553.286193	723.163555
368.000000	553.353091	725.348586
369.000000	553.419988	727.533089
370.000000	553.486885	729.717063
371.000000	553.553783	731.900509
372.000000	553.620680	734.083428
373.000000	553.687578	736.265820
374.000000	553.754475	738.447684
375.000000	553.821373	740.629021
376.000000	553.888270	742.809831
377.000000	553.955168	744.990114
378.000000	554.022065	747.169871
379.000000	554.088963	749.349101
380.000000	554.155860	751.527806
381.000000	554.222758	753.705984
382.000000	554.289655	755.883637
383.000000	554.356553	758.060764
384.000000	554.423450	760.237365
385.000000	554.490348	762.413442
386.000000	554.557245	764.588993
387.000000	554.624143	766.764020
388.000000	554.691040	768.938522
389.000000	554.757937	771.112499
390.000000	554.824835	773.285952
391.000000	554.891732	775.458882
392.000000	554.958630	777.631287
393.000000	555.025527	779.803169
394.000000	555.092425	781.974527
395.000000	555.159322	784.145362
396.000000	555.226220	786.315673
397.000000	555.293117	788.485462
398.000000	555.360015	790.654728
399.000000	555.426912	792.823472
400.000000	555.493810	794.991693
401.000000	555.560707	797.159392
402.000000	555.627605	799.326569
403.000000	555.694502	801.493224
404.000000	555.761400	803.659358
405.000000	555.828297	805.824970
406.000000	555.895195	807.990061
407.000000	555.962092	810.154631
408.000000	556.028989	812.318680
409.000000	556.095887	814.482209
410.000000	556.162784	816.645216
411.000000	556.229682	818.807704
412.000000	556.296579	820.969672
413.000000	556.363477	823.131119
414.000000	556.430374	825.292047
415.000000	556.497272	827.452456
416.000000	556.564169	829.612345
417.000000	556.631067	831.771715
418.000000	556.697964	833.930565
419.000000	556.764862	836.088898
420.000000	556.831759	838.246711
421.000000	556.898657	840.404006
422.000000	556.965554	842.560783
423.000000	557.032452	844.717042
424.000000	557.099349	846.872783
425.000000	557.166247	849.028006
426.000000	557.233144	851.182712
427.000000	557.300042	853.336900
428.000000	557.366939	855.490572
429.000000	557.433836	857.643726
430.000000	557.500734	859.796364
431.000000	557.567631	861.948485
432.000000	557.634529	864.100090
433.000000	557.701426	866.251179
434.000000	557.768324	868.401751
435.000000	557.835221	870.551808
436.000000	557.902119	872.701350
437.000000	557.969016	874.850375
438.000000	558.035914	876.998886
439.000000	558.102811	879.146881
440.000000	558.169709	881.294362
441.000000	558.236606	883.441328
442.000000	558.303504	885.587779
443.000000	558.370401	887.733716
444.000000	558.437299	889.879139
445.000000	558.504196	892.024048
446.000000	558.571094	894.168443
447.000000	558.637991	896.312325
448.000000	558.704888	898.455693
449.000000	558.771786	900.598548
450.000000	558.838683	902.740890
451.000000	558.905581	904.882719
452.000000	558.972478	907.024036
453.000000	559.039376	909.164840
454.000000	559.106273	911.305131
455.000000	559.173171	913.444911
456.000000	559.240068	915.584179
457.000000	559.306966	917.722934
458.000000	559.373863	919.861179
459.000000	559.440761	921.998912
460.000000	559.507658	924.136133
461.000000	559.574556	926.272844
462.000000	559.641453	928.409044
463.000000	559.708351	930.544733
464.000000	559.775248	932.679912
465.000000	559.842146	934.814581
466.000000	559.909043	936.948739
467.000000	559.975940	939.082387
468.000000	560.042838	941.215526
469.000000	560.109735	943.348155
470.000000	560.176633	945.480275
471.000000	560.243530	947.611886
472.000000	560.310428	949.742988
473.000000	560.377325	951.873580
474.000000	560.444223	954.003665
475.000000	560.511120	956.133240
476.000000	560.578018	958.262308
477.000000	560.644915	960.390867
478.000000	560.711813	962.518919
479.000000	560.778710	964.646463
480.000000	560.845608	966.773499
481.000000	560.912505	968.900028
482.000000	560.979403	971.026049
483.000000	561.046300	973.151564
484.000000	561.113198	975.276572
485.000000	561.180095	977.401073
486.000000	561.246993	979.525068
487.000000	561.313890	981.648556
488.000000	561.380787	983.771539
489.000000	561.447685	985.894015
490.000000	561.514582	988.015986
491.000000	561.581480	990.137451
492.000000	561.648377	992.258411
493.000000	561.715275	994.378865
494.000000	561.782172	996.498815
495.000000	561.849070	998.618260
496.000000	561.915967	1000.737200
497.000000	561.982865	1002.855635
498.000000	562.049762	1004.973567
499.000000	562.116660	1007.090994
500.000000	562.183557	1009.207917
501.000000	562.250455	1011.324337
502.000000	562.317352	1013.440253
503.000000	562.384250	1015.555666
504.000000	562.451147	1017.670575
505.000000	562.518045	1019.784981
506.000000	562.584942	1021.898885
507.000000	562.651839	1024.012286
508.000000	562.718737	1026.125184
509.000000	562.785634	1028.237580
510.000000	562.852532	1030.349474
511.000000	562.919429	1032.460866
512.000000	562.986327	1034.571756
513.000000	563.053224	1036.682145
514.000000	563.120122	1038.792032
515.000000	563.187019	1040.901418
516.000000	563.253917	1043.010303
517.000000	563.320814	1045.118687
518.000000	563.387712	1047.226570
519.000000	563.454609	1049.333952
520.000000	563.521507	1051.440835
521.000000	563.588404	1053.547217
522.000000	563.655302	1055.653099
523.000000	563.722199	1057.758482
524.000000	563.789097	1059.863364
525.000000	563.855994	1061.967748
526.000000	563.922891	1064.071632
527.000000	563.989789	1066.175017
528.000000	564.056686	1068.277903
529.000000	564.123584	1070.380290
530.000000	564.190481	1072.482179
531.000000	564.257379	1074.583569
532.000000	564.324276	1076.684461
533.000000	564.391174	1078.784855
534.000000	564.458071	1080.884751
535.000000	564.524969	1082.984150
536.000000	564.591866	1085.083051
537.000000	564.658764	1087.181454
538.000000	564.725661	1089.279361
539.000000	564.792559	1091.376770
540.000000	564.859456	1093.473683
541.000000	564.926354	1095.570099
542.000000	564.993251	1097.666019
543.000000	565.060149	1099.761442
544.000000	565.127046	1101.856370
545.000000	565.193944	1103.950801
546.000000	565.260841	1106.044736
547.000000	565.327738	1108.138177
548.000000	565.394636	1110.231121
549.000000	565.461533	1112.323571
550.000000	565.528431	1114.415525
551.000000	565.595328	1116.506985
552.000000	565.662226	1118.597949
553.000000	565.729123	1120.688420
554.000000	565.796021	1122.778396
555.000000	565.862918	1124.867878
556.000000	565.929816	1126.956865
557.000000	565.996713	1129.045359
558.000000	566.063611	1131.133360
559.000000	566.130508	1133.220867
560.000000	566.197406	1135.307880
561.000000	566.264303	1137.394401
562.000000	566.331201	1139.480429
563.000000	566.398098	1141.565963
564.000000	566.464996	1143.651006
565.000000	566.531893	1145.735555
566.000000	566.598790	1147.819613
567.000000	566.665688	1149.903179
568.000000	566.732585	1151.986252
569.000000	566.799483	1154.068834
570.000000	566.866380	1156.150925
571.000000	566.933278	1158.232524
572.000000	567.000175	1160.313631
573.000000	567.067073	1162.394248
574.000000	567.133970	1164.474374
575.000000	567.200868	1166.554009
576.000000	567.267765	1168.633154
577.000000	567.334663	1170.711809
578.000000	567.401560	1172.789973
579.000000	567.468458	1174.867647
580.000000	567.535355	1176.944832
581.000000	567.602253	1179.021527
582.000000	567.669150	1181.097732
583.000000	567.736048	1183.173448
584.000000	567.802945	1185.248675
585.000000	567.869842	1187.323413
586.000000	567.936740	1189.397663
587.000000	568.003637	1191.471423
588.000000	568.070535	1193.544696
589.000000	568.137432	1195.617480
590.000000	568.204330	1197.689776
591.000000	568.271227	1199.761584
592.000000	568.338125	1201.832904
593.000000	568.405022	1203.903737
594.000000	568.471920	1205.974082
595.000000	568.538817	1208.043940
596.000000	568.605715	1210.113311
597.000000	568.672612	1212.182196
598.000000	568.739510	1214.250593
599.000000	568.806407	1216.318504
600.000000	568.873305	1218.385929
601.000000	568.940202	1220.452867
602.000000	569.007100	1222.519320
603.000000	569.073997	1224.585286
604.000000	569.140895	1226.650767
605.000000	569.207792	1228.715763
606.000000	569.274689	1230.780273
607.000000	569.341587	1232.844298
608.000000	569.408484	1234.907838
609.000000	569.475382	1236.970893
610.000000	569.542279	1239.033463
611.000000	569.609177	1241.095549
612.000000	569.676074	1243.157151
613.000000	569.742972	1245.218268
614.000000	569.809869	1247.278902
615.000000	569.876767	1249.339052
616.000000	569.943664	1251.398718
617.000000	570.010562	1253.457901
618.000000	570.077459	1255.516600
619.000000	570.144357	1257.574817
620.000000	570.211254	1259.632550
621.000000	570.278152	1261.689801
622.000000	570.345049	1263.746569
623.000000	570.411947	1265.802854
624.000000	570.478844	1267.858658
625.000000	570.545741	1269.913979
626.000000	570.612639	1271.968818
627.000000	570.679536	1274.023176
628.000000	570.746434	1276.077052
629.000000	570.813331	1278.130446
630.000000	570.880229	1280.183360
631.000000	570.947126	1282.235792
632.000000	571.014024	1284.287743
633.000000	571.080921	1286.339214
634.000000	571.147819	1288.390204
635.000000	571.214716	1290.440714
636.000000	571.281614	1292.490743
637.000000	571.348511	1294.540292
638.000000	571.415409	1296.589362
639.000000	571.482306	1298.637951
640.000000	571.549204	1300.686062
641.000000	571.616101	1302.733692
642.000000	571.682999	1304.780844
643.000000	571.749896	1306.827516
644.000000	571.816793	1308.873710
645.000000	571.883691	1310.919425
646.000000	571.950588	1312.964661
647.000000	572.017486	1315.009419
648.000000	572.084383	1317.053699
649.000000	572.151281	1319.097501
650.000000	572.218178	1321.140824
651.000000	572.285076	1323.183671
652.000000	572.351973	1325.226039
653.000000	572.418871	1327.267930
654.000000	572.485768	1329.309344
655.000000	572.552666	1331.350281
656.000000	572.619563	1333.390741
657.000000	572.686461	1335.430725
658.000000	572.753358	1337.470231
659.000000	572.820256	1339.509262
660.000000	572.887153	1341.547816
661.000000	572.954051	1343.585894
662.000000	573.020948	1345.623497
663.000000	573.087846	1347.660623
664.000000	573.154743	1349.697274
665.000000	573.221640	1351.733450
666.000000	573.288538	1353.769151
667.000000	573.355435	1355.804376
668.000000	573.422333	1357.839127
669.000000	573.489230	1359.873403
670.000000	573.556128	1361.907204
671.000000	573.623025	1363.940531
672.000000	573.689923	1365.973384
673.000000	573.756820	1368.005763
674.000000	573.823718	1370.037667
675.000000	573.890615	1372.069099
676.000000	573.957513	1374.100056
677.000000	574.024410	1376.130540
678.000000	574.091308	1378.160551
679.000000	574.158205	1380.190089
680.000000	574.225103	1382.219154
681.000000	574.292000	1384.247747
682.000000	574.358898	1386.275866
683.000000	574.425795	1388.303514
684.000000	574.492692	1390.330689
685.000000	574.559590	1392.357392
686.000000	574.626487	1394.383623
687.000000	574.693385	1396.409383
688.000000	574.760282	1398.434671
689.000000	574.827180	1400.459487
690.000000	574.894077	1402.483833
691.000000	574.960975	1404.507707
692.000000	575.027872	1406.531110
693.000000	575.094770	1408.554043
694.000000	575.161667	1410.576505
695.000000	575.228565	1412.598496
696.000000	575.295462	1414.620018
697.000000	575.362360	1416.641069
698.000000	575.429257	1418.661650
699.000000	575.496155	1420.681762
700.000000	575.563052	1422.701404
701.000000	575.629950	1424.720576
702.000000	575.696847	1426.739280
703.000000	575.763744	1428.757514
704.000000	575.830642	1430.775279
705.000000	575.897539	1432.792576
706.000000	575.964437	1434.809404
707.000000	576.031334	1436.825763
708.000000	576.098232	1438.841654
709.000000	576.165129	1440.857077
710.000000	576.232027	1442.872032
711.000000	576.298924	1444.886519
712.000000	576.365822	1446.900539
713.000000	576.432719	1448.914091
714.000000	576.499617	1450.927176
715.000000	576.566514	1452.939794
716.000000	576.633412	1454.951944
717.000000	576.700309	1456.963628
718.000000	576.767207	1458.974845
719.000000	576.834104	1460.985596
720.000000	576.901002	1462.995881
721.000000	576.967899	1465.005699
722.000000	577.034797	1467.015051
723.000000	577.101694	1469.023937
724.000000	577.168591	1471.032358
725.000000	577.235489	1473.040313
726.000000	577.302386	1475.047803
727.000000	577.369284	1477.054828
728.000000	577.436181	1479.061387
729.000000	577.503079	1481.067482
730.000000	577.569976	1483.073112
731.000000	577.636874	1485.078277
732.000000	577.703771	1487.082978
733.000000	577.770669	1489.087215
734.000000	577.837566	1491.090988
735.000000	577.904464	1493.094297
736.000000	577.971361	1495.097142
737.000000	578.038259	1497.099523
738.000000	578.105156	1499.101441
739.000000	578.172054	1501.102896
740.000000	578.238951	1503.103888
741.000000	578.305849	1505.104416
742.000000	578.372746	1507.104482
743.000000	578.439643	1509.104086
744.000000	578.506541	1511.103227
745.000000	578.573438	1513.101905
746.000000	578.640336	1515.100122
747.000000	578.707233	1517.097876
748.000000	578.774131	1519.095169
749.000000	578.841028	1521.092000
750.000000	578.907926	1523.088369
751.000000	578.974823	1525.084277
752.000000	579.041721	1527.079724
753.000000	579.108618	1529.074710
754.000000	579.175516	1531.069235
755.000000	579.242413	1533.063300
756.000000	579.309311	1535.056903
757.000000	579.376208	1537.050047
758.000000	579.443106	1539.042730
759.000000	579.510003	1541.034953
760.000000	579.576901	1543.026717
761.000000	579.643798	1545.018020
762.000000	579.710695	1547.008864
763.000000	579.777593	1548.999248
764.000000	579.844490	1550.989174
765.000000	579.911388	1552.978640
766.000000	579.978285	1554.967647
767.000000	580.045183	1556.956195
768.000000	580.112080	1558.944285
769.000000	580.178978	1560.931917
770.000000	580.245875	1562.919089
771.000000	580.312773	1564.905804
772.000000	580.379670	1566.892061
773.000000	580.446568	1568.877860
774.000000	580.513465	1570.863201
775.000000	580.580363	1572.848085
776.000000	580.647260	1574.832512
777.000000	580.714158	1576.816481
778.000000	580.781055	1578.799993
779.000000	580.847953	1580.783048
780.000000	580.914850	1582.765647
781.000000	580.981748	1584.747789
782.000000	581.048645	1586.729474
783.000000	581.115542	1588.710704
784.000000	581.182440	1590.691477
785.000000	581.249337	1592.671794
786.000000	581.316235	1594.651655
787.000000	581.383132	1596.631061
788.000000	581.450030	1598.610012
789.000000	581.516927	1600.588507
790.000000	581.583825	1602.566547
791.000000	581.650722	1604.544131
792.000000	581.717620	1606.521261
793.000000	581.784517	1608.497937
794.000000	581.851415	1610.474158
795.000000	581.918312	1612.449924
796.000000	581.985210	1614.425236
797.000000	582.052107	1616.400094
798.000000	582.119005	1618.374499
799.000000	582.185902	1620.348449
800.000000	582.252800	1622.321946
801.000000	582.319697	1624.294990
802.000000	582.386594	1626.267580
803.000000	582.453492	1628.239717
804.000000	582.520389	1630.211401
805.000000	582.587287	1632.182632
806.000000	582.654184	1634.153411
807.000000	582.721082	1636.123737
808.000000	582.787979	1638.093611
809.000000	582.854877	1640.063033
810.000000	582.921774	1642.032002
811.000000	582.988672	1644.000520
812.000000	583.055569	1645.968586
813.000000	583.122467	1647.936200
814.000000	583.189364	1649.903363
815.000000	583.256262	1651.870075
816.000000	583.323159	1653.836336
817.000000	583.390057	1655.802146
818.000000	583.456954	1657.767505
819.000000	583.523852	1659.732413
820.000000	583.590749	1661.696871
821.000000	583.657646	1663.660878
822.000000	583.724544	1665.624436
823.000000	583.791441	1667.587543
824.000000	583.858339	1669.550200
825.000000	583.925236	1671.512408
826.000000	583.992134	1673.474166
827.000000	584.059031	1675.435475
828.000000	584.125929	1677.396335
829.000000	584.192826	1679.356745
830.000000	584.259724	1681.316707
831.000000	584.326621	1683.276220
832.000000	584.393519	1685.235284
833.000000	584.460416	1687.193899
834.000000	584.527314	1689.152067
835.000000	584.594211	1691.109786
836.000000	584.661109	1693.067057
837.000000	584.728006	1695.023881
838.000000	584.794904	1696.980256
839.000000	584.861801	1698.936184
840.000000	584.928699	1700.891665
841.000000	584.995596	1702.846699
842.000000	585.062493	1704.801285
843.000000	585.129391	1706.755424
844.000000	585.196288	1708.709117
845.000000	585.263186	1710.662363
846.000000	585.330083	1712.615163
847.000000	585.396981	1714.567516
848.000000	585.463878	1716.519423
849.000000	585.530776	1718.470884
850.000000	585.597673	1720.421899
851.000000	585.664571	1722.372469
852.000000	585.731468	1724.322593
853.000000	585.798366	1726.272271
854.000000	585.865263	1728.221504
855.000000	585.932161	1730.170293
856.000000	585.999058	1732.118636
857.000000	586.065956	1734.066534
858.000000	586.132853	1736.013988
859.000000	586.199751	1737.960997
860.000000	586.266648	1739.907562
861.000000	586.333545	1741.853683
862.000000	586.400443	1743.799360
863.000000	586.467340	1745.744593
864.000000	586.534238	1747.689382
865.000000	586.601135	1749.633728
866.000000	586.668033	1751.577630
867.000000	586.734930	1753.521089
868.000000	586.801828	1755.464104
869.000000	586.868725	1757.406677
870.000000	586.935623	1759.348807
871.000000	587.002520	1761.290494
872.000000	587.069418	1763.231739
873.000000	587.136315	1765.172542
874.000000	587.203213	1767.112902
875.000000	587.270110	1769.052820
876.000000	587.337008	1770.992296
877.000000	587.403905	1772.931331
878.000000	587.470803	1774.869923
879.000000	587.537700	1776.808075
880.000000	587.604597	1778.745785
881.000000	587.671495	1780.683054
882.000000	587.738392	1782.619882
883.000000	587.805290	1784.556269
884.000000	587.872187	1786.492215
885.000000	587.939085	1788.427721
886.000000	588.005982	1790.362786
887.000000	588.072880	1792.297412
888.000000	588.139777	1794.231597
889.000000	588.206675	1796.165342
890.000000	588.273572	1798.098647
891.000000	588.340470	1800.031513
892.000000	588.407367	1801.963939
893.000000	588.474265	1803.895925
894.000000	588.541162	1805.827473
895.000000	588.608060	1807.758582
896.000000	588.674957	1809.689251
897.000000	588.741855	1811.619482
898.000000	588.808752	1813.549274
899.000000	588.875650	1815.478628
900.000000	588.942547	1817.407543
901.000000	589.009444	1819.336021
902.000000	589.076342	1821.264060
903.000000	589.143239	1823.191662
904.000000	589.210137	1825.118825
905.000000	589.277034	1827.045551
906.000000	589.343932	1828.971840
907.000000	589.410829	1830.897692
908.000000	589.477727	1832.823106
909.000000	589.544624	1834.748083
910.000000	589.611522	1836.672624
911.000000	589.678419	1838.596728
912.000000	589.745317	1840.520395
913.000000	589.812214	1842.443626
914.000000	589.879112	1844.366421
915.000000	589.946009	1846.288780
916.000000	590.012907	1848.210703
917.000000	590.079804	1850.132190
918.000000	590.146702	1852.053241
919.000000	590.213599	1853.973857
920.000000	590.280496	1855.894038
921.000000	590.347394	1857.813783
922.000000	590.414291	1859.733094
923.000000	590.481189	1861.651969
924.000000	590.548086	1863.570410
925.000000	590.614984	1865.488416
926.000000	590.681881	1867.405988
927.000000	590.748779	1869.323125
928.000000	590.815676	1871.239828
929.000000	590.882574	1873.156098
930.000000	590.949471	1875.071933
931.000000	591.016369	1876.987335
932.000000	591.083266	1878.902303
933.000000	591.150164	1880.816838
934.000000	591.217061	1882.730939
935.000000	591.283959	1884.644607
936.000000	591.350856	1886.557843
937.000000	591.417754	1888.470645
938.000000	591.484651	1890.383015
939.000000	591.551548	1892.294952
940.000000	591.618446	1894.206457
941.000000	591.685343	1896.117530
942.000000	591.752241	1898.028171
943.000000	591.819138	1899.938379
944.000000	591.886036	1901.848156
945.000000	591.952933	1903.757501
946.000000	592.019831	1905.666415
947.000000	592.086728	1907.574897
948.000000	592.153626	1909.482948
949.000000	592.220523	1911.390568
950.000000	592.287421	1913.297758
951.000000	592.354318	1915.204516
952.000000	592.421216	1917.110844
953.000000	592.488113	1919.016741
954.000000	592.555011	1920.922208
955.000000	592.621908	1922.827244
956.000000	592.688806	1924.731851
957.000000	592.755703	1926.636028
958.000000	592.822601	1928.539775
959.000000	592.889498	1930.443092
960.000000	592.956395	1932.345980
961.000000	593.023293	1934.248439
962.000000	593.090190	1936.150468
963.000000	593.157088	1938.052069
964.000000	593.223985	1939.953240
965.000000	593.290883	1941.853983
966.000000	593.357780	1943.754297
967.000000	593.424678	1945.654183
968.000000	593.491575	1947.553640
969.000000	593.558473	1949.452669
970.000000	593.625370	1951.351271
971.000000	593.692268	1953.249444
972.000000	593.759165	1955.147190
973.000000	593.826063	1957.044508
974.000000	593.892960	1958.941398
975.000000	593.959858	1960.837862
976.000000	594.026755	1962.733898
977.000000	594.093653	1964.629507
978.000000	594.160550	1966.524689
979.000000	594.227447	1968.419445
980.000000	594.294345	1970.313774
981.000000	594.361242	1972.207677
982.000000	594.428140	1974.101153
983.000000	594.495037	1975.994203
984.000000	594.561935	1977.886827
985.000000	594.628832	1979.779026
986.000000	594.695730	1981.670798
987.000000	594.762627	1983.562145
988.000000	594.829525	1985.453067
989.000000	594.896422	1987.343563
990.000000	594.963320	1989.233635
991.000000	595.030217	1991.123281
992.000000	595.097115	1993.012502
993.000000	595.164012	1994.901299
994.000000	595.230910	1996.789671
995.000000	595.297807	1998.677619
996.000000	595.364705	2000.565142
997.000000	595.431602	2002.452242
998.000000	595.498499	2004.338917
999.000000	595.565397	2006.225168
1000.000000	595.632294	2008.110996
1001.000000	595.699192	2009.996401
1002.000000	595.766089	2011.881381
1003.000000	595.832987	2013.765939
1004.000000	595.899884	2015.650073
1005.000000	595.966782	2017.533785
1006.000000	596.033679	2019.417073
1007.000000	596.100577	2021.299939
1008.000000	596.167474	2023.182382
1009.000000	596.234372	2025.064403
1010.000000	596.301269	2026.946002
1011.000000	596.368167	2028.827178
1012.000000	596.435064	2030.707933
1013.000000	596.501962	2032.588265
1014.000000	596.568859	2034.468176
1015.000000	596.635757	2036.347666
1016.000000	596.702654	2038.226734
1017.000000	596.769552	2040.105380
1018.000000	596.836449	2041.983606
1019.000000	596.903346	2043.861410
1020.000000	596.970244	2045.738794
1021.000000	597.037141	2047.615757
1022.000000	597.104039	2049.492299
1023.000000	597.170936	2051.368421
1024.000000	597.237834	2053.244122
1025.000000	597.304731	2055.119404
1026.000000	597.371629	2056.994265
1027.000000	597.438526	2058.868707
1028.000000	597.505424	2060.742729
1029.000000	597.572321	2062.616331
1030.000000	597.639219	2064.489514
1031.000000	597.706116	2066.362277
1032.000000	597.773014	2068.234622
1033.000000	597.839911	2070.106547
1034.000000	597.906809	2071.978053
1035.000000	597.973706	2073.849141
1036.000000	598.040604	2075.719810
1037.000000	598.107501	2077.590061
1038.000000	598.174398	2079.459893
1039.000000	598.241296	2081.329307
1040.000000	598.308193	2083.198303
1041.000000	598.375091	2085.066881
1042.000000	598.441988	2086.935042
1043.000000	598.508886	2088.802784
1044.000000	598.575783	2090.670110
1045.000000	598.642681	2092.537018
1046.000000	598.709578	2094.403508
1047.000000	598.776476	2096.269582
1048.000000	598.843373	2098.135239
1049.000000	598.910271	2100.000479
1050.000000	598.977168	2101.865302
1051.000000	599.044066	2103.729709
1052.000000	599.110963	2105.593699
1053.000000	599.177861	2107.457274
1054.000000	599.244758	2109.320432
1055.000000	599.311656	2111.183174
1056.000000	599.378553	2113.045500
1057.000000	599.445450	2114.907411
1058.000000	599.512348	2116.768906
1059.000000	599.579245	2118.629986
1060.000000	599.646143	2120.490651
1061.000000	599.713040	2122.350900
1062.000000	599.779938	2124.210735
1063.000000	599.846835	2126.070154
1064.000000	599.913733	2127.929159
1065.000000	599.980630	2129.787750
1066.000000	600.047528	2131.645926
1067.000000	600.114425	2133.503687
1068.000000	600.181323	2135.361035
1069.000000	600.248220	2137.217969
1070.000000	600.315118	2139.074488
1071.000000	600.382015	2140.930594
1072.000000	600.448913	2142.786287
1073.000000	600.515810	2144.641566
1074.000000	600.582708	2146.496431
1075.000000	600.649605	2148.350884
1076.000000	600.716503	2150.204923
1077.000000	600.783400	2152.058550
1078.000000	600.850297	2153.911763
1079.000000	600.917195	2155.764564
1080.000000	600.984092	2157.616953
1081.000000	601.050990	2159.468929
1082.000000	601.117887	2161.320494
1083.000000	601.184785	2163.171646
1084.000000	601.251682	2165.022386
1085.000000	601.318580	2166.872714
1086.000000	601.385477	2168.722631
1087.000000	601.452375	2170.572136
1088.000000	601.519272	2172.421230
1089.000000	601.586170	2174.269912
1090.000000	601.653067	2176.118184
1091.000000	601.719965	2177.966044
1092.000000	601.786862	2179.813494
1093.000000	601.853760	2181.660532
1094.000000	601.920657	2183.507161
1095.000000	601.987555	2185.353379
1096.000000	602.054452	2187.199186
1097.000000	602.121349	2189.044584
1098.000000	602.188247	2190.889571
1099.000000	602.255144	2192.734149
1100.000000	602.322042	2194.578317
1101.000000	602.388939	2196.422075
1102.000000	602.455837	2198.265424
1103.000000	602.522734	2200.108363
1104.000000	602.589632	2201.950894
1105.000000	602.656529	2203.793015
1106.000000	602.723427	2205.634727
1107.000000	602.790324	2207.476031
1108.000000	602.857222	2209.316925
1109.000000	602.924119	2211.157412
1110.000000	602.991017	2212.997490
1111.000000	603.057914	2214.837159
1112.000000	603.124812	2216.676421
1113.000000	603.191709	2218.515275
1114.000000	603.258607	2220.353720
1115.000000	603.325504	2222.191759
1116.000000	603.392401	2224.029389
1117.000000	603.459299	2225.866612
1118.000000	603.526196	2227.703428
1119.000000	603.593094	2229.539837
1120.000000	603.659991	2231.375838
1121.000000	603.726889	2233.211433
1122.000000	603.793786	2235.046621
1123.000000	603.860684	2236.881403
1124.000000	603.927581	2238.715778
1125.000000	603.994479	2240.549746
1126.000000	604.061376	2242.383308
1127.000000	604.128274	2244.216465
1128.000000	604.195171	2246.049215
1129.000000	604.262069	2247.881560
1130.000000	604.328966	2249.713499
1131.000000	604.395864	2251.545032
1132.000000	604.462761	2253.376160
1133.000000	604.529659	2255.206882
1134.000000	604.596556	2257.037200
1135.000000	604.663454	2258.867113
1136.000000	604.730351	2260.696620
1137.000000	604.797248	2262.525723
1138.000000	604.864146	2264.354422
1139.000000	604.931043	2266.182715
1140.000000	604.997941	2268.010605
1141.000000	605.064838	2269.838090
1142.000000	605.131736	2271.665172
1143.000000	605.198633	2273.491849
1144.000000	605.265531	2275.318123
1145.000000	605.332428	2277.143993
1146.000000	605.399326	2278.969459
1147.000000	605.466223	2280.794522
1148.000000	605.533121	2282.619182
1149.000000	605.600018	2284.443439
1150.000000	605.666916	2286.267292
1151.000000	605.733813	2288.090743
1152.000000	605.800711	2289.913791
1153.000000	605.867608	2291.736437
1154.000000	605.934506	2293.558680
1155.000000	606.001403	2295.380520
1156.000000	606.068300	2297.201959
1157.000000	606.135198	2299.022996
1158.000000	606.202095	2300.843630
1159.000000	606.268993	2302.663863
1160.000000	606.335890	2304.483694
1161.000000	606.402788	2306.303124
1162.000000	606.469685	2308.122152
1163.000000	606.536583	2309.940779
1164.000000	606.603480	2311.759005
1165.000000	606.670378	2313.576830
1166.000000	606.737275	2315.394253
1167.000000	606.804173	2317.211277
1168.000000	606.871070	2319.027899
1169.000000	606.937968	2320.844122
1170.000000	607.004865	2322.659944
1171.000000	607.071763	2324.475365
1172.000000	607.138660	2326.290387
1173.000000	607.205558	2328.105009
1174.000000	607.272455	2329.919230
1175.000000	607.339352	2331.733053
1176.000000	607.406250	2333.546475
1177.000000	607.473147	2335.359499
1178.000000	607.540045	2337.172123
1179.000000	607.606942	2338.984347
1180.000000	607.673840	2340.796173
1181.000000	607.740737	2342.607600
1182.000000	607.807635	2344.418629
1183.000000	607.874532	2346.229258
1184.000000	607.941430	2348.039489
1185.000000	608.008327	2349.849322
1186.000000	608.075225	2351.658757
1187.000000	608.142122	2353.467793
1188.000000	608.209020	2355.276432
1189.000000	608.275917	2357.084673
1190.000000	608.342815	2358.892516
1191.000000	608.409712	2360.699961
1192.000000	608.476610	2362.507009
1193.000000	608.543507	2364.313660
1194.000000	608.610405	2366.119913
1195.000000	608.677302	2367.925770
1196.000000	608.744199	2369.731229
1197.000000	608.811097	2371.536292
1198.000000	608.877994	2373.340959
1199.000000	608.944892	2375.145228
1200.000000	609.011789	2376.949102
1201.000000	609.078687	2378.752579
1202.000000	609.145584	2380.555660
1203.000000	609.212482	2382.358344
1204.000000	609.279379	2384.160634
1205.000000	609.346277	2385.962527
1206.000000	609.413174	2387.764025
1207.000000	609.480072	2389.565127
1208.000000	609.546969	2391.365834
1209.000000	609.613867	2393.166146
1210.000000	609.680764	2394.966062
1211.000000	609.747662	2396.765584
1212.000000	609.814559	2398.564711
1213.000000	609.881457	2400.363443
1214.000000	609.948354	2402.161781
1215.000000	610.015251	2403.959724
1216.000000	610.082149	2405.757273
1217.000000	610.149046	2407.554427
1218.000000	610.215944	2409.351188
1219.000000	610.282841	2411.147555
1220.000000	610.349739	2412.943528
1221.000000	610.416636	2414.739107
1222.000000	610.483534	2416.534293
1223.000000	610.550431	2418.329085
1224.000000	610.617329	2420.123485
1225.000000	610.684226	2421.917491
1226.000000	610.751124	2423.711104
1227.000000	610.818021	2425.504324
1228.000000	610.884919	2427.297151
1229.000000	610.951816	2429.089586
1230.000000	611.018714	2430.881628
1231.000000	611.085611	2432.673278
1232.000000	611.152509	2434.464536
1233.000000	611.219406	2436.255401
1234.000000	611.286303	2438.045875
1235.000000	611.353201	2439.835957
1236.000000	611.420098	2441.625647
1237.000000	611.486996	2443.414945
1238.000000	611.553893	2445.203852
1239.000000	611.620791	2446.992368
1240.000000	611.687688	2448.780492
1241.000000	611.754586	2450.568226
1242.000000	611.821483	2452.355568
1243.000000	611.888381	2454.142520
1244.000000	611.955278	2455.929081
1245.000000	612.022176	2457.715251
1246.000000	612.089073	2459.501031
1247.000000	612.155971	2461.286421
1248.000000	612.222868	2463.071420
1249.000000	612.289766	2464.856029
1250.000000	612.356663	2466.640249
1251.000000	612.423561	2468.424079
1252.000000	612.490458	2470.207519
1253.000000	612.557356	2471.990569
1254.000000	612.624253	2473.773230
1255.000000	612.691150	2475.555502
1256.000000	612.758048	2477.337385
1257.000000	612.824945	2479.118878
1258.000000	612.891843	2480.899983
1259.000000	612.958740	2482.680699
1260.000000	613.025638	2484.461026
1261.000000	613.092535	2486.240965
1262.000000	613.159433	2488.020515
1263.000000	613.226330	2489.799677
1264.000000	613.293228	2491.578451
1265.000000	613.360125	2493.356837
1266.000000	613.427023	2495.134835
1267.000000	613.493920	2496.912445
1268.000000	613.560818	2498.689668
1269.000000	613.627715	2500.466503
1270.000000	613.694613	2502.242951
1271.000000	613.761510	2504.019012
1272.000000	613.828408	2505.794685
1273.000000	613.895305	2507.569971
1274.000000	613.962202	2509.344871
1275.000000	614.029100	2511.119384
1276.000000	614.095997	2512.893510
1277.000000	614.162895	2514.667250
1278.000000	614.229792	2516.440603
1279.000000	614.296690	2518.213570
1280.000000	614.363587	2519.986151
1281.000000	614.430485	2521.758346
1282.000000	614.497382	2523.530155
1283.000000	614.564280	2525.301578
1284.000000	614.631177	2527.072616
1285.000000	614.698075	2528.843268
1286.000000	614.764972	2530.613535
1287.000000	614.831870	2532.383417
1288.000000	614.898767	2534.152914
1289.000000	614.965665	2535.922025
1290.000000	615.032562	2537.690752
1291.000000	615.099460	2539.459094
1292.000000	615.166357	2541.227051
1293.000000	615.233254	2542.994624
1294.000000	615.300152	2544.761813
1295.000000	615.367049	2546.528617
1296.000000	615.433947	2548.295038
1297.000000	615.500844	2550.061074
1298.000000	615.567742	2551.826726
1299.000000	615.634639	2553.591995
1300.000000	615.701537	2555.356880
1301.000000	615.768434	2557.121382
1302.000000	615.835332	2558.885500
1303.000000	615.902229	2560.649235
1304.000000	615.969127	2562.412587
1305.000000	616.036024	2564.175556
1306.000000	616.102922	2565.938142
1307.000000	616.169819	2567.700346
1308.000000	616.236717	2569.462166
1309.000000	616.303614	2571.223605
1310.000000	616.370512	2572.984661
1311.000000	616.437409	2574.745334
1312.000000	616.504307	2576.505626
1313.000000	616.571204	2578.265536
1314.000000	616.638101	2580.025063
1315.000000	616.704999	2581.784209
1316.000000	616.771896	2583.542974
1317.000000	616.838794	2585.301357
1318.000000	616.905691	2587.059358
1319.000000	616.972589	2588.816979
1320.000000	617.039486	2590.574218
1321.000000	617.106384	2592.331076
1322.000000	617.173281	2594.087554
1323.000000	617.240179	2595.843650
1324.000000	617.307076	2597.599366
1325.000000	617.373974	2599.354702
1326.000000	617.440871	2601.109657
1327.000000	617.507769	2602.864232
1328.000000	617.574666	2604.618427
1329.000000	617.641564	2606.372242
1330.000000	617.708461	2608.125677
1331.000000	617.775359	2609.878732
1332.000000	617.842256	2611.631407
1333.000000	617.909153	2613.383704
1334.000000	617.976051	2615.135620
1335.000000	618.042948	2616.887158
1336.000000	618.109846	2618.638316
1337.000000	618.176743	2620.389095
1338.000000	618.243641	2622.139496
1339.000000	618.310538	2623.889517
